id,x,y,z,yaw,pitch,roll
1,-285.365,226.537,-12.6037,2.44815,0.0125338,0.0385892
2,-285.158,226.362,-12.5984,2.44786,0.0130041,0.0410956
3,-284.9,226.129,-12.6005,2.44785,0.0145507,0.0424314
4,-285.572,226.74,-12.6066,2.44868,0.0121591,0.0338441
5,-285.783,226.932,-12.6126,2.44981,0.0111969,0.0315679
6,-286.004,227.136,-12.6177,2.45057,0.0110078,0.0315235
7,-286.214,227.322,-12.6149,2.44966,0.0104332,0.0319903
8,-286.433,227.506,-12.6136,2.45028,0.00956867,0.0327573
9,-286.638,227.682,-12.6157,2.45092,0.00809249,0.0339212
10,-286.847,227.868,-12.6155,2.45109,0.0070564,0.0334115
11,-287.052,228.044,-12.5982,2.45138,0.00284494,0.0335071
12,-287.249,228.212,-12.5987,2.45098,-0.00184448,0.0358228
13,-287.437,228.369,-12.6173,2.45078,-0.00380791,0.0380278
14,-287.626,228.527,-12.6295,2.4505,-0.00296414,0.0387807
15,-287.807,228.681,-12.6413,2.45088,-0.00158814,0.0397097
16,-287.976,228.828,-12.6355,2.45111,-0.000482569,0.0400661
17,-288.168,228.997,-12.6471,2.45148,-0.000482908,0.0407223
18,-288.339,229.134,-12.6647,2.45203,0.00171644,0.0412118
19,-288.51,229.285,-12.6728,2.45275,0.0052462,0.0405588
20,-288.663,229.418,-12.6657,2.45304,0.00658239,0.0377758
21,-288.826,229.554,-12.6567,2.45349,0.00636656,0.0352164
22,-288.99,229.701,-12.6616,2.45442,0.00586932,0.0346703
23,-289.138,229.827,-12.6709,2.45429,0.00677065,0.0367831
24,-289.277,229.979,-12.678,2.45402,0.00989371,0.0378607
25,-289.461,230.083,-12.6927,2.45478,0.0123765,0.0413042
26,-289.587,230.238,-12.6824,2.45591,0.0141616,0.0423962
27,-289.73,230.363,-12.6781,2.45634,0.0144586,0.0439144
28,-289.914,230.47,-12.6861,2.45595,0.0135736,0.0450965
29,-290.056,230.592,-12.6782,2.45685,0.0118219,0.0445128
30,-290.196,230.708,-12.6899,2.45836,0.0094037,0.0446841
31,-290.327,230.821,-12.678,2.45836,0.0085553,0.043272
32,-290.461,230.948,-12.6618,2.45872,0.00568617,0.0411802
33,-290.581,231.06,-12.673,2.45741,0.00180213,0.0422616
34,-290.724,231.178,-12.665,2.4572,-0.000692763,0.0422372
35,-290.841,231.298,-12.6189,2.45705,-0.00669442,0.0402053
36,-290.967,231.43,-12.627,2.45618,-0.0152458,0.0402523
37,-291.1,231.538,-12.6655,2.45663,-0.0154061,0.040306
38,-291.227,231.636,-12.72,2.45651,-0.00915379,0.0412524
39,-291.344,231.739,-12.7287,2.45823,0.000254761,0.040553
40,-291.466,231.832,-12.7172,2.45828,0.0053492,0.0415796
41,-291.589,231.941,-12.6984,2.45795,0.00269573,0.0432715
42,-291.713,232.062,-12.7169,2.45685,-0.000800868,0.0473289
43,-291.842,232.154,-12.7356,2.45567,-0.000641249,0.0524919
44,-291.966,232.252,-12.7446,2.45488,0.0013293,0.0564367
45,-292.096,232.368,-12.7356,2.45537,0.00407393,0.0553714
46,-292.204,232.466,-12.7321,2.45603,0.006782,0.0506891
47,-292.312,232.566,-12.726,2.45725,0.00753761,0.0454725
48,-292.426,232.665,-12.7282,2.4574,0.00594629,0.0455542
49,-292.54,232.769,-12.741,2.45575,0.00434589,0.0476057
50,-292.648,232.848,-12.7573,2.4552,0.00489724,0.048784
51,-292.772,232.964,-12.7509,2.4559,0.00604096,0.0503631
52,-292.883,233.061,-12.7485,2.45515,0.00603001,0.0505343
53,-292.997,233.157,-12.7505,2.45454,0.00681371,0.0490276
54,-293.142,233.286,-12.7598,2.45607,0.0104271,0.0481195
55,-293.258,233.397,-12.7488,2.4569,0.0116955,0.0482054
56,-293.391,233.514,-12.7113,2.45664,0.00850418,0.0449973
57,-293.535,233.644,-12.7204,2.45515,7.39672e-05,0.0424764
58,-293.671,233.749,-12.7546,2.45521,-0.0024581,0.0421436
59,-293.797,233.856,-12.7596,2.45743,-0.00117128,0.0437186
60,-293.925,233.965,-12.7535,2.45817,-0.00221532,0.0470237
61,-294.053,234.077,-12.7429,2.45769,-0.00443329,0.0484762
62,-294.187,234.203,-12.7671,2.45632,-0.00620074,0.0498568
63,-294.314,234.31,-12.7724,2.45538,-0.00579257,0.0507049
64,-294.438,234.412,-12.7719,2.45603,-0.00536091,0.0519796
65,-294.563,234.527,-12.7814,2.45517,-0.00494751,0.0521427
66,-294.702,234.654,-12.7793,2.45436,-0.00335723,0.0498534
67,-294.824,234.772,-12.783,2.45542,-0.00354087,0.0481759
68,-294.947,234.881,-12.7906,2.45583,-0.00360959,0.0482693
69,-295.087,235.012,-12.7918,2.45531,-0.0038462,0.0479285
70,-295.222,235.127,-12.7944,2.45541,-0.00405367,0.0485704
71,-295.343,235.235,-12.7959,2.45544,-0.00378995,0.0491893
72,-295.483,235.36,-12.79,2.45496,-0.00431449,0.0491364
73,-295.623,235.483,-12.7899,2.45419,-0.00489419,0.0489262
74,-295.752,235.588,-12.7903,2.45445,-0.00486312,0.048895
75,-295.896,235.704,-12.7963,2.45528,-0.00525759,0.0494562
76,-296.012,235.809,-12.7986,2.45465,-0.00506883,0.0491116
77,-296.158,235.926,-12.7938,2.45402,-0.00436762,0.0476415
78,-296.298,236.044,-12.7849,2.4541,-0.00461685,0.045321
79,-296.445,236.175,-12.7961,2.45535,-0.00498752,0.0447253
80,-296.581,236.292,-12.8012,2.45545,-0.00328718,0.0445938
81,-296.733,236.422,-12.8041,2.45519,-0.0014837,0.0447409
82,-296.866,236.539,-12.7933,2.45548,-0.000796153,0.04606
83,-297.007,236.669,-12.7857,2.45551,-0.00101127,0.0463905
84,-297.152,236.794,-12.7849,2.45493,-0.0011498,0.0460811
85,-297.284,236.903,-12.7888,2.45481,-0.000468841,0.0456626
86,-297.432,237.032,-12.7958,2.45434,0.000828955,0.0454462
87,-297.57,237.152,-12.79,2.45438,0.000854288,0.0449131
88,-297.729,237.291,-12.7908,2.45504,-0.00078221,0.0451236
89,-297.864,237.404,-12.7976,2.45595,-0.00106522,0.0457353
90,-298.004,237.533,-12.793,2.4558,-0.00124034,0.0454589
91,-298.155,237.671,-12.8001,2.45575,-0.00211931,0.0445728
92,-298.286,237.792,-12.8052,2.45638,-0.0022513,0.044202
93,-298.421,237.905,-12.8099,2.45696,-0.00245997,0.0437276
94,-298.582,238.044,-12.8146,2.45666,-0.00290381,0.0426227
95,-298.723,238.178,-12.8131,2.45624,-0.00374253,0.0413782
96,-298.878,238.312,-12.8054,2.45658,-0.00539998,0.0400873
97,-299.029,238.436,-12.8069,2.45718,-0.00703946,0.0390505
98,-299.181,238.577,-12.8104,2.45834,-0.00894859,0.0375006
99,-299.32,238.697,-12.8207,2.45934,-0.00898666,0.0368032
100,-299.47,238.816,-12.8329,2.45973,-0.00739005,0.035572
101,-299.626,238.956,-12.8382,2.45989,-0.00609491,0.0350029
102,-299.763,239.074,-12.8464,2.46026,-0.00535305,0.0373936
103,-299.913,239.183,-12.8406,2.46031,-0.00489391,0.0399036
104,-300.071,239.321,-12.8294,2.461,-0.00508863,0.0382174
105,-300.221,239.445,-12.8339,2.46158,-0.00549761,0.0361345
106,-300.365,239.575,-12.8424,2.46212,-0.00505223,0.0343403
107,-300.527,239.721,-12.8435,2.46253,-0.00409332,0.0328601
108,-300.669,239.835,-12.8466,2.4633,-0.00357441,0.0321023
109,-300.825,239.965,-12.8424,2.46427,-0.00365678,0.0310012
110,-300.982,240.101,-12.8465,2.46438,-0.00380117,0.0304273
111,-301.134,240.234,-12.8455,2.46466,-0.0040572,0.0297934
112,-301.29,240.364,-12.8478,2.46457,-0.00374817,0.0286614
113,-301.451,240.495,-12.8504,2.46477,-0.0024248,0.0267258
114,-301.623,240.627,-12.8457,2.46759,-0.00229655,0.0233631
115,-301.777,240.767,-12.847,2.46983,-0.00498855,0.0219168
116,-301.936,240.897,-12.8443,2.47194,-0.00584526,0.0196231
117,-302.111,241.019,-12.8553,2.47456,-0.00603556,0.0182487
118,-302.273,241.143,-12.8563,2.47648,-0.0057467,0.0193233
119,-302.436,241.26,-12.8607,2.47947,-0.00520252,0.0184542
120,-302.604,241.387,-12.8692,2.48203,-0.00470065,0.0183529
121,-302.773,241.526,-12.866,2.48363,-0.00454067,0.01834
122,-302.94,241.662,-12.8617,2.48585,-0.00472448,0.0178743
123,-303.11,241.792,-12.8637,2.48834,-0.0048575,0.0172614
124,-303.285,241.92,-12.8598,2.49162,-0.00437346,0.0160919
125,-303.443,242.034,-12.8633,2.49462,-0.00460761,0.0151624
126,-303.617,242.163,-12.864,2.49777,-0.00493966,0.014326
127,-303.789,242.277,-12.8668,2.50088,-0.00487806,0.013545
128,-303.971,242.402,-12.8673,2.50495,-0.00427092,0.0127321
129,-304.144,242.523,-12.8694,2.51045,-0.00411023,0.0113587
130,-304.318,242.643,-12.8696,2.5152,-0.00411905,0.0111961
131,-304.492,242.753,-12.8749,2.51978,-0.00438895,0.012619
132,-304.679,242.872,-12.8742,2.52607,-0.0065255,0.0155455
133,-304.867,242.984,-12.8619,2.53383,-0.00858673,0.0168274
134,-305.059,243.089,-12.8527,2.54366,-0.0105214,0.0150794
135,-305.243,243.196,-12.8551,2.5538,-0.011328,0.0112358
136,-305.435,243.279,-12.8647,2.56484,-0.0118059,0.00853089
137,-305.63,243.365,-12.8736,2.5763,-0.0114382,0.00794129
138,-305.83,243.45,-12.8757,2.58787,-0.0115271,0.00824482
139,-306.027,243.533,-12.87,2.59971,-0.0117601,0.00808466
140,-306.224,243.609,-12.8723,2.61182,-0.0117892,0.00801908
141,-306.435,243.677,-12.8708,2.62506,-0.0127298,0.00822552
142,-306.632,243.746,-12.8639,2.63751,-0.012879,0.00708094
143,-306.834,243.82,-12.8625,2.65202,-0.0127163,0.00439718
144,-307.041,243.902,-12.8719,2.66761,-0.0138529,0.00265131
145,-307.232,243.963,-12.8689,2.68123,-0.0137719,0.00414046
146,-307.449,244.012,-12.872,2.69697,-0.0134567,0.00549991
147,-307.652,244.06,-12.876,2.71283,-0.0132491,0.00672466
148,-307.87,244.109,-12.8693,2.73027,-0.0132237,0.00784978
149,-308.088,244.142,-12.8602,2.74834,-0.0122245,0.00774353
150,-308.315,244.183,-12.8624,2.76733,-0.0112988,0.00625134
151,-308.544,244.211,-12.8675,2.78819,-0.0108525,0.00520871
152,-308.764,244.233,-12.8709,2.80917,-0.010848,0.00371104
153,-308.985,244.243,-12.8753,2.83019,-0.0109567,0.0026902
154,-309.216,244.257,-12.8791,2.85289,-0.0105317,0.00292221
155,-309.454,244.252,-12.8809,2.87647,-0.00986693,0.00379745
156,-309.681,244.241,-12.877,2.89984,-0.00856254,0.00292581
157,-309.906,244.244,-12.8725,2.92298,-0.00702381,0.00104796
158,-310.142,244.211,-12.8723,2.94808,-0.0062798,-0.000771676
159,-310.373,244.181,-12.874,2.97212,-0.00603495,-0.00118628
160,-310.607,244.133,-12.8714,2.99777,-0.00586481,-0.00105262
161,-310.833,244.086,-12.8795,3.02321,-0.00553418,0.000147727
162,-311.061,244.037,-12.8826,3.04799,-0.00553911,0.00119392
163,-311.293,243.983,-12.8838,3.07338,-0.00521873,0.00231787
164,-311.53,243.924,-12.8817,3.09925,-0.00559292,0.00367334
165,-311.767,243.849,-12.8775,3.12574,-0.00601704,0.00411324
166,-312.001,243.773,-12.8833,-3.13069,-0.0057044,0.00456459
167,-312.239,243.692,-12.8829,-3.1039,-0.00431917,0.00482244
168,-312.464,243.594,-12.8882,-3.07708,-0.00371255,0.00504337
169,-312.697,243.501,-12.887,-3.05021,-0.00420205,0.00566134
170,-312.943,243.391,-12.8962,-3.0222,-0.00454484,0.00636729
171,-313.182,243.271,-12.9038,-2.99387,-0.00433764,0.00751434
172,-313.415,243.159,-12.9131,-2.96547,-0.00333529,0.00868349
173,-313.648,243.033,-12.9094,-2.93717,-0.00108663,0.0101949
174,-313.87,242.904,-12.9173,-2.90903,0.00131178,0.0102726
175,-314.101,242.777,-12.9236,-2.8806,0.00158995,0.0111376
176,-314.349,242.606,-12.9355,-2.8507,-0.000970959,0.0131257
177,-314.588,242.444,-12.9353,-2.82278,-0.00289099,0.013139
178,-314.815,242.276,-12.9372,-2.79398,-0.00462476,0.0102365
179,-315.062,242.096,-12.9445,-2.76468,-0.00617673,0.0102734
180,-315.298,241.907,-12.9526,-2.73633,-0.00535761,0.0136428
181,-315.555,241.713,-12.9485,-2.70829,-0.00476737,0.016313
182,-315.807,241.514,-12.9526,-2.6802,-0.00339511,0.0171725
183,-316.044,241.305,-12.9491,-2.65354,-0.00184241,0.0165165
184,-316.292,241.084,-12.943,-2.62654,-0.000912215,0.0148487
185,-316.547,240.855,-12.9511,-2.60115,0.000569522,0.0131715
186,-316.795,240.624,-12.9404,-2.57752,0.00149241,0.00954741
187,-317.032,240.414,-12.9524,-2.5567,0.00357875,0.00446156
188,-317.277,240.187,-12.9757,-2.53708,0.00534847,0.0012353
189,-317.516,239.964,-12.9907,-2.51835,0.00547402,0.0026347
190,-317.745,239.714,-12.9886,-2.50072,0.00391069,0.00662779
191,-317.986,239.473,-13.0013,-2.48467,0.00126006,0.00958895
192,-318.22,239.251,-12.9886,-2.46792,-0.000774173,0.0109225
193,-318.446,239.002,-12.9938,-2.45075,-0.00131827,0.0128866
194,-318.653,238.753,-12.9938,-2.43438,-0.00013604,0.0133894
195,-318.878,238.499,-12.9983,-2.41696,-0.000364031,0.0118846
196,-319.101,238.254,-13.0079,-2.40036,-0.00140172,0.0109756
197,-319.328,237.986,-13.0124,-2.38502,-0.00368352,0.0100336
198,-319.557,237.722,-13.021,-2.37024,-0.00536141,0.0101054
199,-319.803,237.457,-13.0375,-2.35647,-0.00934045,0.0112093
200,-320.05,237.169,-13.0319,-2.34401,-0.0140048,0.0119703
201,-320.284,236.865,-13.031,-2.33259,-0.0200308,0.0110179
