id,x,y,z,yaw,pitch,roll
1,-285.365,226.537,-12.6037,2.44815,0.0125338,0.0385892
2,-285.158,226.362,-12.5984,2.44786,0.0130041,0.0410956
3,-284.9,226.129,-12.6005,2.44785,0.0145507,0.0424314
4,-285.572,226.74,-12.6067,2.44868,0.0121588,0.033853
5,-285.783,226.932,-12.6126,2.44981,0.0111956,0.0315669
6,-286.004,227.136,-12.6177,2.45057,0.0110091,0.0315241
7,-286.218,227.324,-12.6148,2.44967,0.0104164,0.0319953
8,-286.433,227.507,-12.6136,2.45028,0.00957168,0.03276
9,-286.638,227.682,-12.6157,2.45093,0.00809156,0.0339235
10,-286.847,227.868,-12.6155,2.45109,0.00705516,0.0334124
11,-287.052,228.044,-12.5983,2.45138,0.00284797,0.0335059
12,-287.249,228.212,-12.5987,2.45098,-0.00184523,0.0358246
13,-287.437,228.369,-12.6174,2.45078,-0.00380868,0.0380294
14,-287.618,228.52,-12.6297,2.45047,-0.00298109,0.0388553
15,-287.811,228.683,-12.6414,2.45091,-0.00159756,0.0397509
16,-287.977,228.828,-12.6357,2.45111,-0.000486219,0.0400772
17,-288.168,228.997,-12.647,2.45148,-0.000485386,0.0407129
18,-288.339,229.134,-12.6647,2.45203,0.00171638,0.0412117
19,-288.51,229.285,-12.6728,2.45275,0.00524693,0.0405592
20,-288.666,229.422,-12.6649,2.45306,0.00660607,0.0377447
21,-288.827,229.554,-12.6566,2.45349,0.00636795,0.0352173
22,-288.99,229.701,-12.6616,2.45442,0.00586936,0.0346696
23,-289.138,229.827,-12.6709,2.45429,0.00677082,0.0367839
24,-289.277,229.979,-12.678,2.45402,0.0098935,0.0378627
25,-289.461,230.083,-12.6928,2.45479,0.0123746,0.041307
26,-289.587,230.238,-12.6824,2.45591,0.0141602,0.0423948
27,-289.73,230.363,-12.6781,2.45634,0.0144554,0.0439259
28,-289.914,230.47,-12.6861,2.45595,0.0135714,0.0451042
29,-290.056,230.592,-12.6782,2.45685,0.0118234,0.0445135
30,-290.196,230.708,-12.6898,2.45836,0.00940573,0.0446829
31,-290.327,230.821,-12.6781,2.45836,0.00855492,0.0432728
32,-290.461,230.948,-12.6618,2.45872,0.00568543,0.0411792
33,-290.581,231.06,-12.673,2.45741,0.00180259,0.042261
34,-290.724,231.178,-12.6649,2.4572,-0.000692706,0.0422373
35,-290.841,231.298,-12.6189,2.45705,-0.00669646,0.0401959
36,-290.967,231.43,-12.627,2.45618,-0.0152455,0.0402505
37,-291.1,231.538,-12.6655,2.45663,-0.0154057,0.0403066
38,-291.227,231.636,-12.72,2.45651,-0.00915184,0.0412502
39,-291.343,231.739,-12.7286,2.45823,0.000258238,0.040555
40,-291.466,231.832,-12.7171,2.45828,0.00534709,0.0415769
41,-291.588,231.94,-12.6982,2.45794,0.00272914,0.0432472
42,-291.713,232.062,-12.7169,2.45685,-0.000798867,0.0473271
43,-291.842,232.154,-12.7356,2.45567,-0.000642118,0.0524914
44,-291.966,232.252,-12.7445,2.45488,0.00132997,0.0564369
45,-292.096,232.368,-12.7356,2.45537,0.00407336,0.0553733
46,-292.203,232.465,-12.7325,2.45603,0.00675706,0.050709
47,-292.312,232.566,-12.7261,2.45725,0.00753688,0.0454684
48,-292.426,232.665,-12.7281,2.4574,0.00594231,0.0455497
49,-292.539,232.768,-12.7407,2.45575,0.00438449,0.0475678
50,-292.648,232.848,-12.7571,2.4552,0.00490131,0.0487823
51,-292.772,232.964,-12.7509,2.45591,0.0060404,0.050364
52,-292.883,233.061,-12.7484,2.45515,0.00603094,0.0505324
53,-292.997,233.157,-12.7505,2.45454,0.00681778,0.0490281
54,-293.142,233.286,-12.7598,2.45607,0.0104241,0.0481281
55,-293.258,233.397,-12.7488,2.45691,0.0116938,0.0482036
56,-293.386,233.511,-12.7108,2.45659,0.00861179,0.0450295
57,-293.535,233.644,-12.7202,2.45514,8.37531e-05,0.0424722
58,-293.671,233.749,-12.7546,2.45521,-0.00245886,0.0421441
59,-293.797,233.856,-12.7596,2.45743,-0.00116986,0.043716
60,-293.923,233.964,-12.7526,2.45816,-0.00214486,0.046959
61,-294.053,234.077,-12.7428,2.45769,-0.00443088,0.0484765
62,-294.187,234.203,-12.7671,2.45632,-0.00619677,0.049854
63,-294.313,234.308,-12.7723,2.4554,-0.00578847,0.0506875
64,-294.438,234.411,-12.7718,2.45604,-0.00535991,0.0519792
65,-294.563,234.527,-12.7814,2.45517,-0.00494577,0.0521354
66,-294.702,234.654,-12.7793,2.45436,-0.00335496,0.0498511
67,-294.824,234.772,-12.783,2.45542,-0.00354113,0.0481755
68,-294.947,234.881,-12.7906,2.45583,-0.00361222,0.0482668
69,-295.087,235.012,-12.7918,2.45531,-0.00384593,0.047932
70,-295.223,235.129,-12.7944,2.45543,-0.0040713,0.0485544
71,-295.343,235.235,-12.7959,2.45544,-0.00379346,0.0491877
72,-295.483,235.36,-12.79,2.45496,-0.00430945,0.0491343
73,-295.623,235.483,-12.7899,2.45419,-0.00489243,0.0489233
74,-295.752,235.588,-12.7903,2.45445,-0.00486578,0.0488965
75,-295.896,235.704,-12.7963,2.45527,-0.00525737,0.0494577
76,-296.012,235.809,-12.7986,2.45465,-0.0050689,0.0491114
77,-296.159,235.927,-12.7936,2.454,-0.00436777,0.0475902
78,-296.297,236.044,-12.7849,2.4541,-0.00461645,0.0453146
79,-296.445,236.175,-12.7961,2.45535,-0.00498634,0.0447267
80,-296.581,236.292,-12.8013,2.45545,-0.00328599,0.0445994
81,-296.733,236.422,-12.8041,2.45519,-0.00148545,0.0447417
82,-296.866,236.539,-12.7933,2.45548,-0.000795312,0.0460601
83,-297.006,236.669,-12.7857,2.45551,-0.00100996,0.0463896
84,-297.152,236.794,-12.7849,2.45492,-0.0011513,0.0460887
85,-297.284,236.903,-12.7889,2.45481,-0.000469582,0.0456624
86,-297.432,237.032,-12.7958,2.45434,0.000832736,0.0454443
87,-297.567,237.148,-12.79,2.4544,0.000869661,0.0449226
88,-297.729,237.291,-12.7907,2.45505,-0.000777596,0.0451203
89,-297.864,237.404,-12.7976,2.45595,-0.0010653,0.0457353
90,-298.004,237.533,-12.793,2.4558,-0.00123863,0.0454592
91,-298.155,237.671,-12.8,2.45575,-0.00212266,0.044577
92,-298.286,237.791,-12.8051,2.45639,-0.00224996,0.0442029
93,-298.421,237.905,-12.8099,2.45696,-0.00245659,0.043727
94,-298.582,238.044,-12.8147,2.45666,-0.00289585,0.0426242
95,-298.723,238.178,-12.8131,2.45624,-0.00373924,0.0413801
96,-298.878,238.312,-12.8054,2.45658,-0.00540213,0.0400875
97,-299.029,238.436,-12.8069,2.45719,-0.00704448,0.0390539
98,-299.181,238.577,-12.8104,2.45834,-0.00894781,0.0375018
99,-299.32,238.697,-12.8208,2.45934,-0.00898837,0.036806
100,-299.47,238.818,-12.8328,2.45941,-0.00733474,0.0356242
101,-299.625,238.955,-12.8383,2.4599,-0.00610237,0.0350106
102,-299.763,239.073,-12.8465,2.46026,-0.00535212,0.0373943
103,-299.913,239.183,-12.8406,2.46031,-0.00489845,0.0399031
104,-300.071,239.321,-12.8294,2.461,-0.00508995,0.0382158
105,-300.221,239.445,-12.8339,2.46159,-0.00549573,0.0361345
106,-300.365,239.575,-12.8424,2.46212,-0.00505324,0.03434
107,-300.527,239.721,-12.8435,2.46254,-0.00409437,0.0328611
108,-300.669,239.835,-12.8466,2.46331,-0.00357165,0.032101
109,-300.825,239.965,-12.8424,2.46427,-0.00365666,0.0310001
110,-300.983,240.101,-12.8465,2.46438,-0.00380125,0.0304317
111,-301.134,240.234,-12.8455,2.46466,-0.00405537,0.0297935
112,-301.29,240.364,-12.8478,2.46457,-0.00374794,0.0286642
113,-301.451,240.495,-12.8505,2.46477,-0.002432,0.0267314
114,-301.623,240.627,-12.8457,2.46759,-0.00229602,0.0233637
115,-301.777,240.767,-12.847,2.46983,-0.00498611,0.0219175
116,-301.934,240.896,-12.8443,2.47194,-0.00581471,0.0196659
117,-302.111,241.019,-12.8552,2.47457,-0.00603428,0.0182493
118,-302.273,241.143,-12.8562,2.47648,-0.00574657,0.0193211
119,-302.436,241.26,-12.8607,2.47947,-0.00519914,0.0184522
120,-302.604,241.387,-12.8692,2.48204,-0.0047006,0.0183527
121,-302.773,241.526,-12.866,2.48364,-0.00454413,0.0183402
122,-302.94,241.662,-12.8617,2.48585,-0.00472634,0.017874
123,-303.11,241.792,-12.8637,2.48835,-0.00485464,0.0172603
124,-303.287,241.922,-12.8594,2.49163,-0.00438908,0.0160687
125,-303.444,242.034,-12.8634,2.49462,-0.0046039,0.0151645
126,-303.617,242.163,-12.864,2.49778,-0.00493641,0.0143257
127,-303.79,242.277,-12.8668,2.50088,-0.00487785,0.0135447
128,-303.971,242.402,-12.8673,2.50495,-0.00427108,0.0127312
129,-304.144,242.523,-12.8693,2.51045,-0.0041119,0.0113569
130,-304.317,242.643,-12.8695,2.51518,-0.00411035,0.0111876
131,-304.492,242.753,-12.8749,2.51979,-0.00438645,0.0126161
132,-304.679,242.872,-12.8743,2.52607,-0.00651613,0.0155415
133,-304.867,242.984,-12.8619,2.53383,-0.00858582,0.0168263
134,-305.059,243.089,-12.8527,2.54366,-0.0105226,0.0150807
135,-305.243,243.196,-12.8551,2.55381,-0.0113316,0.0112361
136,-305.435,243.279,-12.8646,2.56484,-0.0118092,0.00853208
137,-305.63,243.365,-12.8736,2.5763,-0.0114411,0.00794199
138,-305.83,243.45,-12.8758,2.58788,-0.0115301,0.00824493
139,-306.027,243.534,-12.87,2.59972,-0.0117578,0.0080817
140,-306.224,243.609,-12.8723,2.61182,-0.0117886,0.0080184
141,-306.435,243.677,-12.8706,2.62507,-0.0127242,0.00822285
142,-306.632,243.746,-12.8639,2.63751,-0.0128791,0.00708195
143,-306.834,243.82,-12.8625,2.65202,-0.0127166,0.00439669
144,-307.041,243.901,-12.8719,2.66772,-0.0139658,0.00266632
145,-307.245,243.96,-12.8724,2.68217,-0.0140901,0.00430296
146,-307.449,244.012,-12.8721,2.69698,-0.0134572,0.00550604
147,-307.653,244.06,-12.876,2.71279,-0.0132423,0.00672546
148,-307.87,244.109,-12.8695,2.73023,-0.0132247,0.00783481
149,-308.088,244.142,-12.8602,2.74834,-0.0122297,0.00774388
150,-308.316,244.183,-12.8624,2.76733,-0.0113,0.00625233
151,-308.544,244.211,-12.8674,2.78819,-0.0108557,0.0052047
152,-308.764,244.233,-12.8708,2.80917,-0.0108458,0.00370319
153,-308.985,244.243,-12.8752,2.83019,-0.0109576,0.00268675
154,-309.216,244.257,-12.8791,2.85289,-0.0105309,0.00292252
155,-309.454,244.252,-12.8809,2.87647,-0.00986721,0.00379576
156,-309.681,244.241,-12.8769,2.89985,-0.00856342,0.00292453
157,-309.906,244.244,-12.8726,2.92298,-0.0070312,0.00105662
158,-310.142,244.211,-12.8723,2.94808,-0.0062778,-0.000772359
159,-310.373,244.181,-12.8741,2.97212,-0.00603666,-0.00118563
160,-310.607,244.132,-12.8714,2.99778,-0.00586893,-0.00105091
161,-310.833,244.086,-12.8797,3.02321,-0.00554263,0.000153447
162,-311.061,244.037,-12.8826,3.048,-0.00553541,0.00119528
163,-311.293,243.982,-12.8838,3.07339,-0.00521743,0.00231653
164,-311.531,243.924,-12.8816,3.09925,-0.00559349,0.00367298
165,-311.767,243.849,-12.8776,3.12574,-0.00602282,0.00410445
166,-312.001,243.773,-12.8833,-3.13069,-0.00570723,0.00456508
167,-312.239,243.692,-12.8829,-3.1039,-0.00431941,0.00482297
168,-312.464,243.594,-12.8882,-3.07708,-0.00371011,0.00503937
169,-312.697,243.501,-12.887,-3.05021,-0.00419938,0.00566248
170,-312.944,243.39,-12.8964,-3.02213,-0.00458636,0.00638935
171,-313.154,243.299,-12.8982,-2.9956,-0.0040328,0.00711353
172,-313.415,243.159,-12.9131,-2.96546,-0.00334094,0.00868458
173,-313.648,243.033,-12.9094,-2.93718,-0.00108548,0.0101942
174,-313.868,242.916,-12.9172,-2.90965,0.00146402,0.010091
175,-314.108,242.761,-12.9274,-2.87967,0.00120761,0.0112241
176,-314.349,242.606,-12.9355,-2.85069,-0.000978929,0.0131254
177,-314.588,242.444,-12.9353,-2.82278,-0.00289166,0.0131416
178,-314.815,242.276,-12.9372,-2.79398,-0.00462574,0.0102375
179,-315.062,242.096,-12.9445,-2.76468,-0.00617718,0.0102735
180,-315.298,241.907,-12.9524,-2.73636,-0.00535489,0.0136374
181,-315.555,241.713,-12.9485,-2.70828,-0.00476203,0.0163114
182,-315.808,241.514,-12.9526,-2.6802,-0.00339634,0.0171735
183,-316.043,241.305,-12.949,-2.65354,-0.00184769,0.0165153
184,-316.292,241.084,-12.943,-2.62654,-0.000914649,0.0148497
185,-316.547,240.854,-12.951,-2.60111,0.000554301,0.0131815
186,-316.796,240.624,-12.9404,-2.57752,0.00149114,0.00955048
187,-317.032,240.414,-12.9524,-2.5567,0.00357749,0.00446162
188,-317.277,240.188,-12.9753,-2.53717,0.00537534,0.0012308
189,-317.516,239.964,-12.991,-2.51833,0.00544343,0.00264644
190,-317.745,239.714,-12.9886,-2.50071,0.00390825,0.00663086
191,-317.986,239.473,-13.0013,-2.48466,0.0012613,0.0095881
192,-318.221,239.25,-12.9885,-2.46785,-0.000851135,0.0109405
193,-318.446,239.002,-12.9938,-2.45075,-0.00131871,0.0128868
194,-318.653,238.753,-12.9938,-2.43438,-0.000135117,0.013389
195,-318.878,238.5,-12.9983,-2.41697,-0.000359586,0.0118822
196,-319.101,238.254,-13.0079,-2.40036,-0.00140168,0.0109764
197,-319.328,237.986,-13.0123,-2.38502,-0.00368214,0.0100345
198,-319.557,237.722,-13.021,-2.37024,-0.00536028,0.0101054
199,-319.803,237.456,-13.0375,-2.35647,-0.00933785,0.0112091
200,-320.05,237.17,-13.0319,-2.34402,-0.0139791,0.0119741
201,-320.284,236.865,-13.0311,-2.3326,-0.020029,0.0110174
