id,x,y,z,yaw,pitch,roll
1,-285.128,226.333,-12.603,2.44835,0.0127484,0.0393335
2,-284.889,226.125,-12.6054,2.44859,0.0140206,0.0399088
3,-285.359,226.53,-12.6155,2.44852,0.0124723,0.0359493
4,-285.582,226.736,-12.6201,2.44895,0.0116017,0.0339028
5,-285.789,226.922,-12.626,2.44995,0.0111099,0.031824
6,-286.009,227.12,-12.6206,2.45037,0.0108318,0.0311942
7,-286.222,227.296,-12.6236,2.44988,0.0103237,0.0318933
8,-286.437,227.484,-12.6197,2.45012,0.00916279,0.0331316
9,-286.635,227.672,-12.6159,2.45104,0.00760015,0.0330597
10,-286.847,227.85,-12.6105,2.45112,0.00667061,0.0329847
11,-287.047,228.03,-12.5889,2.45137,0.00259327,0.0322402
12,-287.247,228.201,-12.5834,2.45108,-0.00151517,0.0338725
13,-287.438,228.368,-12.6082,2.45085,-0.00418267,0.0359503
14,-287.633,228.521,-12.6297,2.44999,-0.00362142,0.038254
15,-287.811,228.679,-12.6395,2.45041,-0.00170616,0.0392769
16,-287.99,228.825,-12.6424,2.45081,-0.000635636,0.0392919
17,-288.163,228.982,-12.6491,2.45109,-0.000372115,0.0393634
18,-288.347,229.132,-12.6617,2.45152,0.00188114,0.039882
19,-288.513,229.275,-12.6795,2.45259,0.00515187,0.0394387
20,-288.679,229.419,-12.6831,2.45281,0.0065152,0.0375251
21,-288.835,229.56,-12.6667,2.45284,0.00651177,0.0354264
22,-288.996,229.696,-12.6839,2.4539,0.00606215,0.0347928
23,-289.155,229.844,-12.6966,2.45342,0.00613393,0.0372233
24,-289.314,229.962,-12.7118,2.45346,0.009744,0.0386873
25,-289.448,230.083,-12.7199,2.45388,0.01214,0.0407828
26,-289.601,230.222,-12.7087,2.45494,0.0138912,0.04277
27,-289.735,230.349,-12.6962,2.45503,0.0146493,0.0444154
28,-289.884,230.477,-12.6879,2.4542,0.0138731,0.0438974
29,-290.017,230.58,-12.6786,2.45543,0.01208,0.0439791
30,-290.147,230.71,-12.6854,2.45614,0.0098895,0.043685
31,-290.291,230.816,-12.6776,2.45624,0.00893734,0.0428413
32,-290.403,230.939,-12.6587,2.45683,0.00653564,0.0403661
33,-290.542,231.064,-12.6733,2.45625,0.00207303,0.0410208
34,-290.678,231.168,-12.669,2.45587,-0.000561823,0.0408995
35,-290.803,231.284,-12.6176,2.45611,-0.00607265,0.0393047
36,-290.934,231.394,-12.6375,2.45502,-0.0143238,0.0403079
37,-291.07,231.505,-12.6861,2.45529,-0.0149265,0.0401526
38,-291.186,231.607,-12.7411,2.45566,-0.00940202,0.0408351
39,-291.317,231.703,-12.7747,2.45604,-0.000544371,0.0417205
40,-291.419,231.812,-12.7307,2.45644,0.00522628,0.0408368
41,-291.551,231.932,-12.7127,2.45618,0.00193514,0.0433589
42,-291.673,232.039,-12.7188,2.45517,-0.000920753,0.0468177
43,-291.815,232.145,-12.7485,2.45379,-0.00114739,0.0520894
44,-291.929,232.249,-12.7543,2.45344,0.00139721,0.0558078
45,-292.052,232.353,-12.7485,2.45426,0.00388191,0.0545199
46,-292.175,232.46,-12.7419,2.4549,0.00674634,0.0505475
47,-292.28,232.559,-12.736,2.45565,0.00745333,0.0463285
48,-292.399,232.662,-12.7374,2.45624,0.00562195,0.0462889
49,-292.521,232.786,-12.7466,2.4551,0.00368221,0.0476242
50,-292.635,232.867,-12.7615,2.45435,0.00451391,0.0490149
51,-292.762,232.963,-12.7586,2.45512,0.0057421,0.0502909
52,-292.879,233.075,-12.7594,2.45436,0.00589221,0.0509594
53,-292.99,233.168,-12.7638,2.45357,0.0068223,0.0490648
54,-293.122,233.274,-12.7918,2.45507,0.00977789,0.0490665
55,-293.248,233.385,-12.7611,2.45612,0.0110604,0.0490728
56,-293.365,233.508,-12.7254,2.45524,0.00831366,0.0456341
57,-293.511,233.633,-12.7344,2.45446,-0.000240533,0.0437933
58,-293.655,233.753,-12.7773,2.45475,-0.00325976,0.043267
59,-293.771,233.851,-12.7792,2.45643,-0.00227802,0.0445277
60,-293.903,233.961,-12.767,2.45765,-0.00298737,0.0474199
61,-294.032,234.077,-12.7561,2.45742,-0.00485355,0.0484377
62,-294.158,234.193,-12.7792,2.45558,-0.006593,0.0502987
63,-294.291,234.303,-12.7864,2.455,-0.00622828,0.0514967
64,-294.429,234.421,-12.7768,2.45571,-0.00546011,0.0522233
65,-294.547,234.547,-12.787,2.45462,-0.00517161,0.0523001
66,-294.685,234.657,-12.779,2.45398,-0.00369396,0.0498135
67,-294.813,234.772,-12.7864,2.45509,-0.00393607,0.0480951
68,-294.942,234.886,-12.7859,2.45561,-0.00411744,0.0478237
69,-295.088,235.008,-12.7921,2.45496,-0.0043155,0.0477225
70,-295.218,235.121,-12.7984,2.45515,-0.00442284,0.0482442
71,-295.348,235.241,-12.8031,2.45526,-0.00436401,0.0489103
72,-295.481,235.358,-12.7953,2.45445,-0.00494649,0.0492989
73,-295.612,235.481,-12.8041,2.45353,-0.00511431,0.0491858
74,-295.75,235.596,-12.796,2.45337,-0.0053239,0.0493112
75,-295.881,235.71,-12.7985,2.45411,-0.00578934,0.049784
76,-296.014,235.825,-12.8096,2.45375,-0.00549078,0.0496725
77,-296.155,235.942,-12.8011,2.4531,-0.00475751,0.04793
78,-296.286,236.063,-12.7893,2.4529,-0.00514061,0.0454226
79,-296.412,236.177,-12.8131,2.45415,-0.00506665,0.0451913
80,-296.556,236.312,-12.8233,2.45393,-0.00361499,0.0446418
81,-296.694,236.422,-12.8229,2.45372,-0.00216798,0.0448159
82,-296.833,236.546,-12.8191,2.45406,-0.00135577,0.0457054
83,-296.994,236.678,-12.8169,2.45434,-0.00208846,0.0475191
84,-297.138,236.799,-12.8193,2.45403,-0.00196243,0.0470408
85,-297.274,236.921,-12.8224,2.4537,-0.00131168,0.0467682
86,-297.416,237.049,-12.8246,2.45339,-9.36719e-05,0.0460446
87,-297.546,237.169,-12.8131,2.45301,0.000687185,0.0452872
88,-297.695,237.295,-12.8054,2.45379,-0.00104678,0.0450832
89,-297.844,237.42,-12.8178,2.45521,-0.00136673,0.0455485
90,-297.982,237.552,-12.8158,2.45472,-0.00178624,0.0454898
91,-298.132,237.679,-12.8181,2.45444,-0.00226622,0.0442063
92,-298.278,237.809,-12.8269,2.45534,-0.00271362,0.0438032
93,-298.416,237.923,-12.8244,2.45606,-0.00309368,0.0432709
94,-298.564,238.05,-12.8271,2.45579,-0.00321362,0.042375
95,-298.701,238.182,-12.829,2.45509,-0.00410359,0.0412597
96,-298.857,238.309,-12.8133,2.45585,-0.00548193,0.0393856
97,-299.003,238.449,-12.8136,2.4563,-0.00723999,0.0388377
98,-299.157,238.572,-12.81,2.45685,-0.00873251,0.0381226
99,-299.306,238.697,-12.8274,2.45804,-0.00926489,0.0374738
100,-299.447,238.831,-12.835,2.45772,-0.00761592,0.0360493
101,-299.588,238.956,-12.8398,2.45843,-0.00672985,0.0356674
102,-299.754,239.081,-12.8478,2.4589,-0.00601448,0.0377613
103,-299.9,239.206,-12.8435,2.45914,-0.00512544,0.0395518
104,-300.052,239.329,-12.8247,2.45984,-0.00536403,0.0378973
105,-300.204,239.476,-12.8387,2.45985,-0.00645652,0.0364033
106,-300.35,239.598,-12.8416,2.46067,-0.00533809,0.0344011
107,-300.501,239.732,-12.8346,2.46132,-0.00438147,0.0328888
108,-300.66,239.856,-12.8478,2.46206,-0.00374622,0.0320946
109,-300.812,239.982,-12.8484,2.46299,-0.00371149,0.0306364
110,-300.975,240.115,-12.86,2.46343,-0.00443649,0.0302588
111,-301.118,240.249,-12.8545,2.46351,-0.0050157,0.0295943
112,-301.264,240.387,-12.8519,2.46329,-0.00474011,0.0284249
113,-301.438,240.519,-12.8617,2.46344,-0.00303234,0.0262015
114,-301.602,240.649,-12.8474,2.46624,-0.00327519,0.023333
115,-301.755,240.777,-12.8489,2.46867,-0.00580896,0.022504
116,-301.911,240.913,-12.8313,2.47042,-0.00678317,0.0192566
117,-302.084,241.034,-12.8508,2.4734,-0.00625979,0.0170015
118,-302.246,241.17,-12.8505,2.47516,-0.0060776,0.0182356
119,-302.403,241.29,-12.8577,2.47798,-0.00520456,0.0172704
120,-302.569,241.411,-12.8575,2.48051,-0.00513047,0.0170249
121,-302.744,241.544,-12.8647,2.4822,-0.00491072,0.0174353
122,-302.902,241.677,-12.853,2.48433,-0.00503849,0.0170802
123,-303.078,241.806,-12.8542,2.48716,-0.00531474,0.0164056
124,-303.257,241.935,-12.8489,2.49039,-0.00511424,0.0153047
125,-303.419,242.063,-12.8484,2.49326,-0.00512103,0.0143943
126,-303.589,242.178,-12.8482,2.4963,-0.0054057,0.0135595
127,-303.756,242.298,-12.8563,2.4997,-0.00519971,0.0124639
128,-303.93,242.424,-12.859,2.50365,-0.00425918,0.0118157
129,-304.114,242.549,-12.8674,2.50921,-0.00412029,0.0109207
130,-304.286,242.667,-12.8647,2.514,-0.00391825,0.010816
131,-304.459,242.785,-12.8727,2.51857,-0.00434826,0.011684
132,-304.649,242.9,-12.8615,2.5247,-0.00725835,0.0149987
133,-304.842,243,-12.8548,2.53238,-0.0090846,0.0165102
134,-305.031,243.114,-12.851,2.54213,-0.0104813,0.0152276
135,-305.214,243.207,-12.8475,2.55218,-0.0117727,0.0112093
136,-305.406,243.31,-12.8491,2.56329,-0.0121411,0.0071343
137,-305.594,243.406,-12.8501,2.57463,-0.0117032,0.00661127
138,-305.797,243.492,-12.8635,2.5865,-0.0119847,0.00712912
139,-305.995,243.575,-12.8617,2.59829,-0.0120365,0.00693943
140,-306.186,243.649,-12.8576,2.61077,-0.0118553,0.00661888
141,-306.39,243.719,-12.8618,2.6238,-0.0128836,0.00656662
142,-306.591,243.786,-12.8556,2.63631,-0.0132436,0.00588118
143,-306.802,243.862,-12.8541,2.6506,-0.0132175,0.00356008
144,-307.002,243.927,-12.8616,2.66629,-0.0140789,0.00119615
145,-307.206,243.986,-12.8603,2.68085,-0.0143508,0.00323928
146,-307.41,244.04,-12.8572,2.69576,-0.0134236,0.00430919
147,-307.626,244.089,-12.8629,2.71128,-0.0134353,0.0053808
148,-307.843,244.139,-12.8618,2.72894,-0.013061,0.0071233
149,-308.067,244.182,-12.8514,2.74706,-0.0122822,0.00697382
150,-308.289,244.222,-12.8554,2.76596,-0.0116442,0.00561032
151,-308.51,244.247,-12.8609,2.78679,-0.0108673,0.0042871
152,-308.732,244.26,-12.8608,2.80812,-0.0106256,0.00314789
153,-308.956,244.281,-12.8599,2.8293,-0.0100234,0.00158471
154,-309.19,244.281,-12.8728,2.85197,-0.0103719,0.00263811
155,-309.425,244.284,-12.8806,2.87547,-0.00969355,0.00323724
156,-309.654,244.265,-12.8757,2.89875,-0.00816783,0.00258314
157,-309.883,244.259,-12.8665,2.92275,-0.00681227,0.000921249
158,-310.123,244.223,-12.874,2.94693,-0.00640237,-0.000609219
159,-310.351,244.198,-12.8689,2.97137,-0.00572354,-0.00148801
160,-310.586,244.164,-12.8753,2.99675,-0.00562372,-0.0010462
161,-310.807,244.112,-12.878,3.02222,-0.00505657,-0.000193892
162,-311.046,244.06,-12.8805,3.04709,-0.00506092,0.000766916
163,-311.273,244.016,-12.8826,3.07235,-0.00439975,0.00182747
164,-311.504,243.951,-12.8836,3.09816,-0.00443075,0.00301387
165,-311.748,243.875,-12.8829,3.12463,-0.00521254,0.00338213
166,-311.982,243.803,-12.8919,-3.13199,-0.00467052,0.00378766
167,-312.214,243.717,-12.8947,-3.10501,-0.00330531,0.00415607
168,-312.448,243.629,-12.895,-3.07818,-0.00203257,0.00389185
169,-312.678,243.522,-12.9032,-3.05099,-0.0029514,0.0042131
170,-312.917,243.424,-12.9085,-3.02318,-0.00326369,0.0051145
171,-313.159,243.314,-12.9117,-2.99499,-0.0028571,0.00597179
172,-313.39,243.196,-12.9184,-2.96651,-0.00196993,0.0074523
173,-313.623,243.061,-12.9199,-2.93788,0.000327726,0.00888518
174,-313.86,242.922,-12.9237,-2.90967,0.00215278,0.00972939
175,-314.098,242.797,-12.9289,-2.88056,0.00210344,0.0103273
176,-314.325,242.632,-12.9328,-2.85167,2.02275e-05,0.0121815
177,-314.553,242.468,-12.9317,-2.82322,-0.00130902,0.0118921
178,-314.786,242.312,-12.9314,-2.79481,-0.0034839,0.00951581
179,-315.042,242.125,-12.9502,-2.76524,-0.00453876,0.00977223
180,-315.285,241.938,-12.9573,-2.73677,-0.00378344,0.0126707
181,-315.548,241.747,-12.957,-2.70884,-0.00341052,0.0148705
182,-315.789,241.536,-12.9647,-2.68045,-0.00200259,0.0161877
183,-316.028,241.329,-12.9622,-2.65439,-0.000849158,0.0158989
184,-316.289,241.111,-12.9554,-2.62768,0.000656701,0.0145946
185,-316.533,240.876,-12.9573,-2.602,0.00235938,0.0127222
186,-316.776,240.646,-12.9466,-2.57856,0.00338604,0.0100479
187,-317.012,240.418,-12.9508,-2.55731,0.00537532,0.00498218
188,-317.26,240.194,-12.9764,-2.53783,0.0069072,0.00190222
189,-317.49,239.973,-12.9984,-2.51908,0.00727183,0.00310634
190,-317.726,239.729,-12.9934,-2.5016,0.00572296,0.00682625
191,-317.967,239.498,-12.9918,-2.48548,0.00325512,0.00972518
192,-318.203,239.269,-12.9788,-2.46852,0.00079074,0.0111473
193,-318.424,239.02,-12.9822,-2.45099,0.000531626,0.0126921
194,-318.643,238.777,-12.9793,-2.43453,0.000985907,0.0133441
195,-318.882,238.523,-12.987,-2.41716,0.000922434,0.0122931
196,-319.096,238.278,-13.0069,-2.40077,7.79799e-05,0.0117424
197,-319.317,238.013,-13.0237,-2.38547,-0.0023755,0.0102693
198,-319.549,237.731,-13.0394,-2.37054,-0.00440165,0.00975888
199,-319.786,237.473,-13.047,-2.35679,-0.00808269,0.0110604
200,-320.03,237.189,-13.0486,-2.34406,-0.0124522,0.0119938
201,-320.262,236.886,-13.0303,-2.33309,-0.0185356,0.0121089
