id,x,y,z,yaw,pitch,roll
1,-285.365,226.536,-12.6015,2.44851,0.0125185,0.0347695
2,-285.14,226.341,-12.6042,2.44841,0.013023,0.0387779
3,-284.907,226.129,-12.6142,2.44852,0.0141963,0.0405833
4,-285.569,226.733,-12.6204,2.44892,0.0120086,0.0334885
5,-285.795,226.93,-12.62,2.45004,0.0108828,0.0315007
6,-286.015,227.126,-12.6248,2.45048,0.0107692,0.0307719
7,-286.225,227.311,-12.6311,2.44963,0.0100249,0.0318389
8,-286.437,227.483,-12.6284,2.4502,0.00929098,0.0335823
9,-286.649,227.675,-12.6182,2.45099,0.00783196,0.0338967
10,-286.847,227.849,-12.6114,2.45106,0.00660867,0.0334158
11,-287.05,228.038,-12.5937,2.45136,0.00239861,0.0330066
12,-287.254,228.202,-12.5967,2.45116,-0.00189475,0.034174
13,-287.446,228.371,-12.6156,2.45079,-0.00434495,0.0369074
14,-287.632,228.524,-12.6336,2.45022,-0.00302356,0.0379935
15,-287.808,228.684,-12.6452,2.45059,-0.00165508,0.0391084
16,-287.995,228.84,-12.6351,2.45086,-0.000389405,0.0395539
17,-288.169,228.994,-12.6486,2.45129,-0.000708682,0.0398066
18,-288.345,229.136,-12.6762,2.45153,0.00143561,0.0409144
19,-288.516,229.287,-12.6812,2.45235,0.00482743,0.0398806
20,-288.67,229.424,-12.6707,2.45273,0.00640233,0.0377279
21,-288.841,229.565,-12.6631,2.45309,0.00640465,0.0349516
22,-288.99,229.697,-12.6714,2.45392,0.00606032,0.0349012
23,-289.155,229.843,-12.6919,2.45365,0.00645968,0.0364416
24,-289.31,229.969,-12.7047,2.45324,0.00963014,0.0383361
25,-289.459,230.09,-12.7197,2.45426,0.011906,0.0414947
26,-289.603,230.225,-12.707,2.45507,0.0132441,0.043208
27,-289.738,230.354,-12.6975,2.45521,0.0143225,0.0448954
28,-289.882,230.477,-12.6818,2.45434,0.013533,0.0437641
29,-290.022,230.584,-12.6854,2.45537,0.0120153,0.0439201
30,-290.147,230.72,-12.6917,2.4561,0.00955483,0.0436625
31,-290.293,230.826,-12.6902,2.45651,0.00856506,0.0427124
32,-290.424,230.949,-12.6684,2.45698,0.005943,0.0403245
33,-290.546,231.072,-12.6825,2.4562,0.00206039,0.0410145
34,-290.699,231.176,-12.6786,2.4562,-0.000840605,0.0409039
35,-290.801,231.293,-12.6235,2.45588,-0.00620295,0.039108
36,-290.937,231.399,-12.6326,2.45479,-0.0144591,0.039998
37,-291.074,231.515,-12.6909,2.45511,-0.0154625,0.040309
38,-291.181,231.614,-12.7398,2.45536,-0.00930291,0.040938
39,-291.312,231.708,-12.7789,2.45606,5.94031e-05,0.0412583
40,-291.418,231.814,-12.7356,2.45636,0.00534715,0.0410547
41,-291.559,231.928,-12.7148,2.45625,0.00262199,0.0431201
42,-291.683,232.045,-12.7329,2.45531,-0.000613444,0.0474831
43,-291.808,232.143,-12.7599,2.45369,-0.000536145,0.0531131
44,-291.943,232.255,-12.7609,2.45362,0.00123842,0.0561695
45,-292.062,232.359,-12.7424,2.45446,0.0042457,0.0548155
46,-292.181,232.463,-12.7434,2.45512,0.00621352,0.05083
47,-292.291,232.562,-12.733,2.45588,0.00725665,0.0460484
48,-292.404,232.678,-12.7341,2.45622,0.00545806,0.0458563
49,-292.515,232.79,-12.7499,2.45483,0.00392741,0.0475752
50,-292.639,232.869,-12.7637,2.45436,0.00449383,0.04897
51,-292.765,232.967,-12.7572,2.4552,0.00568076,0.0507973
52,-292.87,233.068,-12.7597,2.45439,0.00563314,0.0515267
53,-293.001,233.171,-12.764,2.45358,0.00655951,0.049387
54,-293.131,233.284,-12.7832,2.45529,0.00953894,0.0485005
55,-293.25,233.399,-12.7567,2.45625,0.0111017,0.0486949
56,-293.378,233.517,-12.7254,2.45567,0.00814517,0.0461659
57,-293.505,233.643,-12.7339,2.45433,-0.00038441,0.0435042
58,-293.649,233.757,-12.7714,2.45447,-0.0030687,0.0428137
59,-293.773,233.864,-12.7756,2.45667,-0.00222423,0.0443118
60,-293.904,233.972,-12.763,2.45743,-0.0031278,0.0471133
61,-294.044,234.087,-12.7586,2.45743,-0.00520783,0.0486783
62,-294.162,234.203,-12.7806,2.45566,-0.00686788,0.0504846
63,-294.298,234.321,-12.782,2.45473,-0.00660147,0.0512575
64,-294.424,234.43,-12.7751,2.45532,-0.00588179,0.0517289
65,-294.547,234.546,-12.7908,2.45434,-0.0056873,0.0523121
66,-294.688,234.663,-12.7802,2.45392,-0.00377064,0.0496225
67,-294.812,234.778,-12.7793,2.45499,-0.00377982,0.0476743
68,-294.949,234.905,-12.7815,2.45564,-0.00403885,0.0477362
69,-295.093,235.028,-12.7915,2.4547,-0.00459417,0.0473726
70,-295.223,235.137,-12.7967,2.45508,-0.00471503,0.048248
71,-295.346,235.245,-12.7987,2.45497,-0.00445657,0.0490425
72,-295.482,235.368,-12.7981,2.45452,-0.00474607,0.0488543
73,-295.615,235.483,-12.7986,2.45366,-0.0049664,0.0490327
74,-295.754,235.606,-12.7976,2.45331,-0.00540731,0.0490124
75,-295.88,235.715,-12.8045,2.4541,-0.00549735,0.0494767
76,-296.013,235.835,-12.8026,2.45362,-0.00537878,0.0490398
77,-296.156,235.949,-12.7999,2.45282,-0.00469465,0.0475301
78,-296.289,236.075,-12.7912,2.4528,-0.00480835,0.0446488
79,-296.424,236.195,-12.8056,2.45414,-0.00504283,0.0447724
80,-296.559,236.313,-12.8232,2.45406,-0.00373024,0.0446474
81,-296.708,236.438,-12.8197,2.45385,-0.00198047,0.0450081
82,-296.845,236.555,-12.8153,2.45418,-0.00138801,0.0460878
83,-296.998,236.685,-12.8166,2.45435,-0.00189818,0.047262
84,-297.137,236.811,-12.8142,2.4541,-0.00179252,0.0465924
85,-297.273,236.934,-12.8193,2.45386,-0.00115866,0.0466604
86,-297.416,237.051,-12.8222,2.45366,7.29486e-05,0.04603
87,-297.55,237.178,-12.814,2.45325,0.000159178,0.0450299
88,-297.691,237.303,-12.8123,2.45398,-0.000663545,0.0449283
89,-297.851,237.432,-12.8149,2.45524,-0.00118926,0.0453675
90,-297.98,237.553,-12.8093,2.45491,-0.00124885,0.0452136
91,-298.135,237.682,-12.8173,2.45478,-0.00194976,0.0441613
92,-298.276,237.813,-12.8162,2.4554,-0.00175073,0.0437842
93,-298.411,237.932,-12.8166,2.45608,-0.00251215,0.0427833
94,-298.563,238.054,-12.8148,2.45585,-0.00243345,0.0420823
95,-298.703,238.186,-12.8176,2.4553,-0.00329592,0.0409977
96,-298.857,238.322,-12.8132,2.45587,-0.00559381,0.0395189
97,-298.999,238.452,-12.8143,2.45603,-0.00731528,0.0386953
98,-299.161,238.578,-12.8146,2.45687,-0.0088858,0.0381259
99,-299.3,238.703,-12.8279,2.45766,-0.00899132,0.0371221
100,-299.452,238.831,-12.838,2.45794,-0.00740748,0.0359249
101,-299.597,238.963,-12.8392,2.45833,-0.00665534,0.0352785
102,-299.748,239.083,-12.8479,2.45904,-0.00561526,0.0378329
103,-299.9,239.206,-12.8419,2.45898,-0.00485847,0.0395021
104,-300.052,239.341,-12.8328,2.45984,-0.00513358,0.0383585
105,-300.198,239.477,-12.8397,2.46022,-0.00595701,0.0361822
106,-300.353,239.61,-12.8468,2.46074,-0.00493281,0.0337289
107,-300.495,239.734,-12.8483,2.46135,-0.00428805,0.0328926
108,-300.653,239.866,-12.855,2.46193,-0.0035773,0.0319544
109,-300.808,239.99,-12.8576,2.46313,-0.00379121,0.0308534
110,-300.964,240.123,-12.865,2.46345,-0.00390545,0.0301428
111,-301.113,240.251,-12.8548,2.46351,-0.00458407,0.0295361
112,-301.269,240.388,-12.8564,2.46342,-0.00412615,0.0283207
113,-301.429,240.522,-12.8511,2.46353,-0.00268196,0.025982
114,-301.605,240.66,-12.8465,2.4662,-0.00250711,0.0227787
115,-301.752,240.786,-12.8399,2.46884,-0.0053211,0.0215785
116,-301.913,240.918,-12.827,2.47059,-0.00646261,0.0188244
117,-302.085,241.043,-12.8426,2.47343,-0.00632016,0.0173429
118,-302.251,241.175,-12.8447,2.4754,-0.00625911,0.0183051
119,-302.405,241.299,-12.8449,2.47817,-0.00563985,0.0173575
120,-302.579,241.421,-12.8572,2.48055,-0.00534859,0.0174955
121,-302.739,241.553,-12.8576,2.48238,-0.00518653,0.0174733
122,-302.914,241.683,-12.8569,2.48452,-0.00535722,0.0172993
123,-303.08,241.815,-12.8591,2.48704,-0.00537054,0.0165512
124,-303.258,241.945,-12.86,2.4903,-0.00500707,0.0156507
125,-303.421,242.06,-12.858,2.49346,-0.00496102,0.014809
126,-303.597,242.182,-12.8611,2.49631,-0.00528482,0.0140469
127,-303.768,242.306,-12.8626,2.49963,-0.00524551,0.0133555
128,-303.942,242.43,-12.8623,2.50374,-0.00484401,0.0124573
129,-304.123,242.557,-12.8664,2.50925,-0.00453948,0.0117901
130,-304.293,242.679,-12.8709,2.51403,-0.00435892,0.0114743
131,-304.465,242.782,-12.8749,2.51868,-0.00476059,0.0126187
132,-304.658,242.904,-12.8696,2.52478,-0.00674724,0.0150613
133,-304.837,243.009,-12.8622,2.53245,-0.00900356,0.0167643
134,-305.032,243.118,-12.8526,2.54219,-0.0107038,0.0156129
135,-305.214,243.208,-12.8448,2.55226,-0.0115166,0.0108573
136,-305.411,243.316,-12.8555,2.56346,-0.012511,0.00798408
137,-305.602,243.411,-12.8633,2.57477,-0.0120311,0.00650697
138,-305.799,243.491,-12.8655,2.5866,-0.0121307,0.00679758
139,-305.998,243.575,-12.8655,2.59838,-0.0119675,0.00668447
140,-306.194,243.658,-12.8704,2.61085,-0.0119076,0.00676212
141,-306.396,243.726,-12.8681,2.62384,-0.0129004,0.0065676
142,-306.606,243.793,-12.8598,2.63662,-0.0133018,0.00595402
143,-306.798,243.876,-12.8614,2.65053,-0.013319,0.00396384
144,-307.004,243.937,-12.8689,2.6665,-0.0139866,0.00151926
145,-307.208,243.991,-12.866,2.68103,-0.0142257,0.00327451
146,-307.415,244.048,-12.8703,2.69582,-0.0133621,0.0044799
147,-307.626,244.098,-12.8691,2.712,-0.0130016,0.00573082
148,-307.845,244.143,-12.867,2.72914,-0.0130502,0.00701114
149,-308.062,244.182,-12.8611,2.74715,-0.0123159,0.00707733
150,-308.29,244.221,-12.8601,2.76632,-0.0113246,0.00572198
151,-308.507,244.246,-12.8698,2.78717,-0.010731,0.00470437
152,-308.728,244.258,-12.8677,2.80805,-0.0106292,0.00291027
153,-308.966,244.277,-12.872,2.82951,-0.0105972,0.00211981
154,-309.193,244.289,-12.8762,2.85226,-0.0102444,0.00243119
155,-309.426,244.279,-12.8771,2.87573,-0.0094487,0.00324809
156,-309.658,244.273,-12.8818,2.89934,-0.00832064,0.00258423
157,-309.89,244.257,-12.8706,2.92294,-0.00692985,0.000696818
158,-310.124,244.23,-12.8753,2.94726,-0.00633796,-0.000934107
159,-310.349,244.201,-12.8842,2.9718,-0.00594344,-0.00138509
160,-310.588,244.167,-12.8772,2.99715,-0.00571736,-0.00136902
161,-310.817,244.119,-12.8841,3.0225,-0.0053131,-0.000306263
162,-311.049,244.07,-12.889,3.04742,-0.00513651,0.00084607
163,-311.28,244.013,-12.8886,3.07267,-0.00480497,0.00213348
164,-311.519,243.951,-12.8875,3.09861,-0.00521156,0.0032196
165,-311.753,243.88,-12.8898,3.1248,-0.00597416,0.00383717
166,-311.984,243.806,-12.8948,-3.13157,-0.00508604,0.00420806
167,-312.23,243.71,-12.898,-3.10474,-0.00340303,0.00419721
168,-312.446,243.626,-12.901,-3.07821,-0.00239561,0.00423232
169,-312.683,243.531,-12.9109,-3.05065,-0.00333894,0.00464241
170,-312.917,243.426,-12.9114,-3.02259,-0.00353146,0.00550347
171,-313.153,243.307,-12.9151,-2.99453,-0.00328032,0.0065621
172,-313.391,243.196,-12.9199,-2.96608,-0.00214494,0.00767171
173,-313.617,243.067,-12.9249,-2.93773,5.2278e-05,0.00943811
174,-313.854,242.936,-12.9214,-2.90931,0.00238203,0.00974184
175,-314.085,242.797,-12.9319,-2.88005,0.00227256,0.0106459
176,-314.321,242.63,-12.935,-2.85114,0.000344436,0.0126752
177,-314.556,242.472,-12.9399,-2.8232,-0.00127831,0.0121253
178,-314.793,242.311,-12.946,-2.79471,-0.00325302,0.00914166
179,-315.049,242.133,-12.9582,-2.76499,-0.00500422,0.00952525
180,-315.292,241.94,-12.964,-2.73646,-0.0039779,0.0126283
181,-315.538,241.739,-12.9606,-2.70831,-0.00299403,0.0154496
182,-315.788,241.541,-12.9658,-2.68039,-0.00180083,0.0162719
183,-316.027,241.33,-12.9627,-2.65419,-0.000357932,0.0159044
184,-316.287,241.114,-12.9604,-2.62713,0.000992633,0.0145982
185,-316.541,240.87,-12.9612,-2.60154,0.00198111,0.0129909
186,-316.774,240.648,-12.9544,-2.57826,0.00336993,0.0100085
187,-317.013,240.422,-12.9667,-2.55711,0.00486416,0.0048193
188,-317.26,240.202,-12.9938,-2.53752,0.0069188,0.00143823
189,-317.493,239.974,-13.0104,-2.51893,0.00691278,0.00288146
190,-317.725,239.731,-13.0098,-2.50136,0.0055717,0.00718795
191,-317.964,239.493,-13.0128,-2.48533,0.00274019,0.0102026
192,-318.201,239.27,-12.9957,-2.46829,0.000158004,0.0113077
193,-318.427,239.021,-13.0018,-2.45095,-0.000156873,0.0131476
194,-318.646,238.777,-13.0003,-2.4344,0.000653691,0.0138575
195,-318.878,238.523,-13.0113,-2.41702,0.000263651,0.0126317
196,-319.101,238.281,-13.0311,-2.40069,-0.000408706,0.0114299
197,-319.326,238.015,-13.0215,-2.38535,-0.00304737,0.0103277
198,-319.551,237.74,-13.0307,-2.37046,-0.00454181,0.0102147
199,-319.78,237.467,-13.0442,-2.35665,-0.00768138,0.0122875
200,-320.026,237.18,-13.0475,-2.34397,-0.0129321,0.012433
201,-320.264,236.882,-13.0381,-2.33293,-0.0190038,0.010639
