id,x,y,z,yaw,pitch,roll
1,-285.364,226.54,-12.6049,2.44801,0.0126535,0.0395013
2,-285.135,226.361,-12.5969,2.44805,0.0131019,0.0412164
3,-284.891,226.134,-12.5984,2.44805,0.0146378,0.0434035
4,-285.577,226.74,-12.6078,2.44845,0.0123013,0.0355228
5,-285.796,226.938,-12.6136,2.44953,0.0112253,0.033228
6,-286.009,227.138,-12.6168,2.45043,0.0111599,0.0329682
7,-286.226,227.325,-12.613,2.44963,0.0105981,0.0333404
8,-286.44,227.509,-12.6138,2.4502,0.00974657,0.0339777
9,-286.65,227.687,-12.6155,2.45082,0.00815503,0.0348565
10,-286.85,227.87,-12.615,2.45117,0.00706807,0.0334539
11,-287.055,228.044,-12.5975,2.45145,0.00296833,0.0341745
12,-287.25,228.207,-12.6011,2.45097,-0.00168838,0.0365089
13,-287.437,228.361,-12.6195,2.45073,-0.00372769,0.0386655
14,-287.622,228.517,-12.6301,2.45048,-0.00285394,0.0392568
15,-287.815,228.68,-12.6416,2.45078,-0.00142643,0.0402301
16,-287.984,228.829,-12.6341,2.45095,-0.000329201,0.0404671
17,-288.168,228.987,-12.6462,2.45144,-0.000344169,0.0410968
18,-288.337,229.127,-12.6624,2.45208,0.00180979,0.0413481
19,-288.513,229.285,-12.6715,2.45271,0.0053016,0.0407834
20,-288.672,229.425,-12.6635,2.45315,0.00658961,0.0379057
21,-288.831,229.554,-12.6532,2.45365,0.0064452,0.0355953
22,-288.99,229.693,-12.6596,2.45451,0.00593363,0.0352945
23,-289.14,229.823,-12.667,2.45436,0.00676865,0.0373441
24,-289.275,229.986,-12.6617,2.45403,0.0100447,0.0377396
25,-289.46,230.084,-12.6871,2.45476,0.012398,0.0410196
26,-289.585,230.243,-12.6719,2.4559,0.0141693,0.0421839
27,-289.731,230.364,-12.6675,2.45652,0.0145783,0.0438164
28,-289.924,230.472,-12.6882,2.45615,0.0135662,0.0457985
29,-290.073,230.591,-12.6873,2.45741,0.0116069,0.0453818
30,-290.219,230.703,-12.7029,2.45955,0.00911125,0.0460341
31,-290.374,230.816,-12.6966,2.45998,0.00785135,0.0448156
32,-290.504,230.931,-12.677,2.46035,0.00504596,0.0424445
33,-290.625,231.051,-12.6833,2.45919,0.00118988,0.0432381
34,-290.757,231.171,-12.672,2.45823,-0.000955699,0.0429068
35,-290.864,231.299,-12.6165,2.45807,-0.00684777,0.0398762
36,-290.978,231.436,-12.6101,2.45666,-0.0151451,0.0391037
37,-291.111,231.545,-12.6485,2.45743,-0.0153299,0.0392483
38,-291.245,231.645,-12.7117,2.45727,-0.00925653,0.0403252
39,-291.354,231.742,-12.7166,2.45897,0.00022962,0.03957
40,-291.48,231.825,-12.7126,2.45918,0.0052043,0.0413288
41,-291.613,231.93,-12.6978,2.45911,0.00240586,0.043472
42,-291.742,232.052,-12.7139,2.45843,-0.00101924,0.0470373
43,-291.868,232.143,-12.7301,2.45696,-0.000955738,0.0524867
44,-291.991,232.248,-12.7335,2.45661,0.000951642,0.0554815
45,-292.116,232.358,-12.7272,2.45703,0.00360818,0.0543194
46,-292.231,232.452,-12.7203,2.45823,0.00633939,0.0493746
47,-292.333,232.537,-12.7155,2.45925,0.00718368,0.0445043
48,-292.456,232.659,-12.7126,2.45946,0.00534528,0.0441125
49,-292.576,232.764,-12.7301,2.45791,0.00372815,0.046596
50,-292.688,232.835,-12.7478,2.45738,0.00448017,0.0479966
51,-292.79,232.936,-12.7393,2.45768,0.00574522,0.0492113
52,-292.91,233.035,-12.7366,2.45747,0.00580115,0.0495244
53,-293.033,233.147,-12.7376,2.45652,0.00649888,0.0479369
54,-293.169,233.265,-12.7448,2.45811,0.0100381,0.046977
55,-293.291,233.372,-12.7323,2.45901,0.0115412,0.0468689
56,-293.424,233.5,-12.6947,2.45863,0.00835258,0.0438355
57,-293.546,233.611,-12.6883,2.45705,0.00104231,0.0411085
58,-293.7,233.728,-12.7342,2.45692,-0.00258729,0.0405622
59,-293.832,233.829,-12.7447,2.45904,-0.00160433,0.0429755
60,-293.958,233.935,-12.7356,2.45966,-0.00254684,0.046214
61,-294.085,234.044,-12.7282,2.45924,-0.00485141,0.0479215
62,-294.222,234.167,-12.7518,2.45787,-0.00661369,0.0491967
63,-294.351,234.276,-12.7577,2.45679,-0.00603489,0.0500319
64,-294.47,234.389,-12.7607,2.45731,-0.00557315,0.051445
65,-294.589,234.518,-12.7721,2.45598,-0.00520543,0.0516812
66,-294.714,234.647,-12.7692,2.45521,-0.00368201,0.0492397
67,-294.831,234.757,-12.7728,2.45611,-0.00377045,0.0478007
68,-294.962,234.87,-12.7811,2.45657,-0.00390006,0.0480174
69,-295.099,235.006,-12.7853,2.45576,-0.00397092,0.0476972
70,-295.231,235.117,-12.7852,2.45598,-0.00418022,0.0481758
71,-295.363,235.237,-12.7831,2.45593,-0.00405255,0.0486339
72,-295.493,235.358,-12.7763,2.45545,-0.0044301,0.0484417
73,-295.632,235.478,-12.7776,2.45458,-0.00509981,0.0484396
74,-295.759,235.582,-12.7792,2.45489,-0.00498939,0.0484552
75,-295.89,235.687,-12.7887,2.45566,-0.00504205,0.0492197
76,-296.025,235.802,-12.7939,2.45528,-0.00506854,0.0490273
77,-296.174,235.92,-12.7828,2.45485,-0.00454759,0.0471249
78,-296.324,236.04,-12.772,2.45538,-0.00515764,0.0445405
79,-296.471,236.162,-12.7821,2.45664,-0.00554625,0.044154
80,-296.612,236.286,-12.7896,2.45671,-0.00353474,0.0439523
81,-296.763,236.396,-12.7877,2.45654,-0.0017964,0.0438661
82,-296.902,236.505,-12.7736,2.45712,-0.000925465,0.0452476
83,-297.038,236.625,-12.7686,2.45693,-0.00127899,0.0458088
84,-297.178,236.739,-12.7674,2.45628,-0.00125873,0.0459165
85,-297.328,236.844,-12.7752,2.45603,-0.000797974,0.0457782
86,-297.473,236.968,-12.7773,2.45563,0.000368784,0.0453378
87,-297.616,237.099,-12.7744,2.45575,0.0005183,0.0449564
88,-297.773,237.228,-12.7761,2.45628,-0.00106958,0.0451501
89,-297.908,237.338,-12.7851,2.45732,-0.00149763,0.046033
90,-298.06,237.463,-12.7826,2.45725,-0.00153419,0.0457926
91,-298.202,237.604,-12.7842,2.45709,-0.00215328,0.0445656
92,-298.347,237.727,-12.7901,2.45798,-0.00269224,0.044091
93,-298.47,237.849,-12.7949,2.45862,-0.00292853,0.043068
94,-298.634,237.982,-12.7998,2.45848,-0.00326181,0.0421957
95,-298.76,238.12,-12.7961,2.4581,-0.00395947,0.0407238
96,-298.916,238.271,-12.7858,2.45818,-0.00575424,0.0391442
97,-299.068,238.386,-12.7828,2.45905,-0.00715755,0.0379566
98,-299.213,238.525,-12.7917,2.45988,-0.00887479,0.0373779
99,-299.352,238.651,-12.8043,2.46092,-0.00887454,0.0366306
100,-299.503,238.766,-12.8114,2.46094,-0.00711578,0.0351941
101,-299.656,238.888,-12.8205,2.46156,-0.00599503,0.034893
102,-299.805,239.012,-12.827,2.46152,-0.00536789,0.0370482
103,-299.952,239.139,-12.8156,2.46155,-0.00477592,0.0391222
104,-300.108,239.251,-12.8123,2.4622,-0.00518327,0.0379622
105,-300.278,239.382,-12.825,2.46287,-0.00571683,0.0362402
106,-300.426,239.514,-12.8317,2.46338,-0.00513449,0.034261
107,-300.567,239.647,-12.8337,2.46394,-0.00443398,0.0331138
108,-300.724,239.785,-12.8379,2.46447,-0.00383489,0.0322265
109,-300.871,239.919,-12.8325,2.46545,-0.00387813,0.0308355
110,-301.026,240.059,-12.8322,2.46552,-0.00382357,0.0300265
111,-301.173,240.182,-12.829,2.46597,-0.00395968,0.0293831
112,-301.331,240.317,-12.8324,2.4657,-0.00349567,0.0284501
113,-301.487,240.455,-12.8389,2.46574,-0.00226802,0.0264724
114,-301.659,240.579,-12.8333,2.4689,-0.00232987,0.022999
115,-301.815,240.7,-12.8361,2.47111,-0.00482277,0.022128
116,-301.975,240.843,-12.8356,2.47305,-0.00593989,0.0194569
117,-302.152,240.969,-12.8484,2.47569,-0.0061158,0.0181339
118,-302.308,241.094,-12.8508,2.47741,-0.00590859,0.019168
119,-302.482,241.214,-12.8516,2.4804,-0.00527132,0.0181664
120,-302.643,241.343,-12.8566,2.48289,-0.00448475,0.0178483
121,-302.819,241.485,-12.8562,2.48433,-0.00440543,0.0181375
122,-302.983,241.618,-12.8569,2.48682,-0.0048277,0.018068
123,-303.148,241.754,-12.8565,2.48929,-0.00493717,0.0172008
124,-303.321,241.877,-12.8549,2.49271,-0.00431358,0.0158804
125,-303.481,241.999,-12.8542,2.49554,-0.00446249,0.0146046
126,-303.649,242.125,-12.8544,2.49856,-0.00464111,0.0137741
127,-303.822,242.239,-12.8561,2.50177,-0.00458878,0.0130158
128,-304.003,242.364,-12.8591,2.50579,-0.00413973,0.0124339
129,-304.171,242.489,-12.858,2.51137,-0.00395126,0.0108681
130,-304.343,242.608,-12.8579,2.51597,-0.00404357,0.0107366
131,-304.517,242.721,-12.8651,2.52066,-0.00430443,0.0122019
132,-304.693,242.827,-12.8582,2.52652,-0.00614721,0.0146901
133,-304.893,242.933,-12.8509,2.53469,-0.00840832,0.0161969
134,-305.084,243.043,-12.8409,2.54417,-0.0101753,0.0145239
135,-305.272,243.165,-12.8471,2.55441,-0.0110104,0.0110037
136,-305.451,243.249,-12.8544,2.56545,-0.0112717,0.00813858
137,-305.655,243.334,-12.8626,2.57693,-0.0108342,0.00780394
138,-305.856,243.417,-12.863,2.58859,-0.0109502,0.00807984
139,-306.051,243.503,-12.8604,2.60033,-0.0110566,0.00799902
140,-306.251,243.58,-12.8621,2.61268,-0.0112727,0.00812261
141,-306.457,243.647,-12.8617,2.62527,-0.0120216,0.00837089
142,-306.661,243.713,-12.8543,2.63805,-0.0124763,0.00722419
143,-306.854,243.787,-12.854,2.65209,-0.0123452,0.00412975
144,-307.056,243.88,-12.8639,2.66786,-0.0134406,0.00235855
145,-307.269,243.93,-12.8657,2.68249,-0.0137652,0.00427713
146,-307.477,243.98,-12.867,2.69708,-0.0133727,0.00548976
147,-307.686,244.027,-12.8708,2.71313,-0.0131413,0.00686795
148,-307.899,244.07,-12.8663,2.73054,-0.0132706,0.00801851
149,-308.117,244.104,-12.8554,2.74849,-0.0122405,0.0078407
150,-308.346,244.153,-12.858,2.76752,-0.0113517,0.00620726
151,-308.573,244.18,-12.8652,2.7881,-0.0111736,0.00513327
152,-308.793,244.208,-12.8685,2.809,-0.0110644,0.00369744
153,-309.015,244.217,-12.872,2.8301,-0.0110441,0.00294515
154,-309.248,244.229,-12.8777,2.85288,-0.0108103,0.00321813
155,-309.483,244.23,-12.8799,2.87646,-0.00999973,0.00394058
156,-309.711,244.212,-12.8749,2.89985,-0.0085302,0.00313595
157,-309.935,244.213,-12.8715,2.92341,-0.00714961,0.00140708
158,-310.172,244.185,-12.8718,2.94794,-0.00656343,-0.000421653
159,-310.406,244.154,-12.8759,2.97231,-0.00645184,-0.000824252
160,-310.633,244.109,-12.8713,2.99761,-0.00606149,-0.000825084
161,-310.859,244.059,-12.8801,3.02289,-0.00587231,0.000486832
162,-311.086,244.015,-12.8807,3.04778,-0.00574019,0.0015126
163,-311.321,243.952,-12.88,3.07325,-0.00530417,0.00285175
164,-311.554,243.894,-12.8776,3.09937,-0.00557527,0.00438034
165,-311.789,243.822,-12.872,3.12569,-0.00595949,0.00478572
166,-312.025,243.751,-12.8796,-3.13063,-0.00574547,0.00505756
167,-312.26,243.669,-12.8777,-3.10382,-0.00421304,0.00522903
168,-312.485,243.573,-12.8837,-3.07704,-0.00348899,0.00520416
169,-312.73,243.479,-12.882,-3.04993,-0.00430032,0.00570559
170,-312.974,243.368,-12.8898,-3.0219,-0.00477825,0.00637223
171,-313.215,243.253,-12.896,-2.99364,-0.00465099,0.00749317
172,-313.448,243.142,-12.906,-2.96549,-0.00363532,0.00869532
173,-313.678,243.014,-12.9041,-2.93693,-0.00124323,0.0102919
174,-313.904,242.886,-12.9118,-2.90903,0.00086529,0.0104613
175,-314.143,242.745,-12.9239,-2.87965,0.00115238,0.0112599
176,-314.387,242.576,-12.9304,-2.8509,-0.0012086,0.0132263
177,-314.621,242.408,-12.9273,-2.82285,-0.00310236,0.0133483
178,-314.834,242.242,-12.9329,-2.79398,-0.00456645,0.0103523
179,-315.086,242.072,-12.9402,-2.7649,-0.00632434,0.0102604
180,-315.318,241.888,-12.9462,-2.73661,-0.00552833,0.0138332
181,-315.576,241.696,-12.9432,-2.70867,-0.00498791,0.0164502
182,-315.825,241.506,-12.9448,-2.68072,-0.00356808,0.017321
183,-316.071,241.296,-12.9407,-2.65428,-0.00219538,0.0165392
184,-316.319,241.068,-12.9353,-2.62712,-0.0011977,0.0146787
185,-316.574,240.835,-12.9427,-2.60174,0.000148172,0.013072
186,-316.803,240.613,-12.9329,-2.57822,0.0011224,0.0098359
187,-317.05,240.409,-12.9438,-2.55706,0.00311592,0.00434205
188,-317.292,240.18,-12.9687,-2.53749,0.00510183,0.00112217
189,-317.533,239.953,-12.9843,-2.51855,0.00506678,0.00248143
190,-317.77,239.702,-12.9825,-2.50068,0.00354623,0.00631342
191,-317.997,239.46,-12.9934,-2.48458,0.00103302,0.00948175
192,-318.235,239.242,-12.9789,-2.46797,-0.00121659,0.0109722
193,-318.459,238.991,-12.9849,-2.4508,-0.00177542,0.0127483
194,-318.668,238.744,-12.9857,-2.43455,-0.000527527,0.0130867
195,-318.897,238.497,-12.9894,-2.41727,-0.000747342,0.0117271
196,-319.115,238.241,-12.9945,-2.4004,-0.00210533,0.0104242
197,-319.337,237.977,-13.0061,-2.3851,-0.0039454,0.00984158
198,-319.569,237.709,-13.0137,-2.37039,-0.00573401,0.0100175
199,-319.815,237.451,-13.0296,-2.3566,-0.00943726,0.0106809
200,-320.07,237.162,-13.0258,-2.34398,-0.0145225,0.0114505
201,-320.305,236.854,-13.0273,-2.33265,-0.0204373,0.0111001
