id,x,y,z,yaw,pitch,roll
1,-285.363,226.541,-12.6003,2.44802,0.0127928,0.039226
2,-285.123,226.351,-12.5971,2.44806,0.0131854,0.0411188
3,-284.886,226.131,-12.5991,2.44806,0.0146603,0.0433736
4,-285.581,226.743,-12.6075,2.44848,0.012275,0.0354924
5,-285.798,226.941,-12.6133,2.44954,0.0112118,0.0331761
6,-286.018,227.146,-12.6152,2.45048,0.0111145,0.0329265
7,-286.23,227.329,-12.612,2.44974,0.0105687,0.0332951
8,-286.445,227.512,-12.6142,2.45023,0.00970678,0.0339609
9,-286.654,227.689,-12.6174,2.45089,0.00805993,0.0349946
10,-286.858,227.878,-12.6141,2.45117,0.00701553,0.0333571
11,-287.06,228.048,-12.5964,2.4515,0.00292877,0.0341313
12,-287.252,228.208,-12.6008,2.45097,-0.00172455,0.0365348
13,-287.44,228.364,-12.6211,2.45077,-0.00375375,0.0387513
14,-287.629,228.522,-12.6307,2.45051,-0.00287891,0.0392496
15,-287.819,228.684,-12.643,2.45078,-0.00147388,0.0403675
16,-287.996,228.84,-12.6321,2.45096,-0.000287059,0.0404214
17,-288.174,228.994,-12.6471,2.4514,-0.000374045,0.0411458
18,-288.353,229.14,-12.6622,2.45207,0.00179147,0.0413598
19,-288.516,229.288,-12.6712,2.4527,0.0053357,0.0407838
20,-288.677,229.427,-12.6629,2.45321,0.00659478,0.0379275
21,-288.841,229.565,-12.6525,2.45368,0.00642614,0.035638
22,-288.998,229.699,-12.6602,2.45459,0.00595868,0.0353455
23,-289.153,229.831,-12.6688,2.45437,0.00676595,0.0375166
24,-289.278,229.989,-12.6617,2.45404,0.0100776,0.0377476
25,-289.473,230.09,-12.6905,2.4547,0.0123173,0.0414369
26,-289.592,230.249,-12.6729,2.45596,0.0141861,0.042179
27,-289.738,230.37,-12.6673,2.45652,0.0145704,0.0440176
28,-289.927,230.473,-12.6911,2.45614,0.0135531,0.0461173
29,-290.078,230.595,-12.6881,2.45749,0.011533,0.0454387
30,-290.224,230.706,-12.7042,2.45966,0.0090655,0.0461105
31,-290.376,230.817,-12.6971,2.46001,0.00780857,0.0448173
32,-290.507,230.935,-12.6774,2.46031,0.00497675,0.0424257
33,-290.625,231.052,-12.6847,2.45911,0.00107761,0.0433454
34,-290.759,231.172,-12.6722,2.45817,-0.000982445,0.0429488
35,-290.867,231.302,-12.6168,2.45805,-0.00698286,0.0398464
36,-290.981,231.438,-12.6109,2.4567,-0.0151908,0.0391553
37,-291.117,231.55,-12.6511,2.45749,-0.0154016,0.0393873
38,-291.246,231.646,-12.7123,2.45725,-0.0091957,0.0403239
39,-291.356,231.744,-12.7162,2.45903,0.000231777,0.0395378
40,-291.482,231.826,-12.7111,2.45918,0.0052716,0.0412131
41,-291.616,231.931,-12.6973,2.45912,0.00235912,0.0435332
42,-291.744,232.054,-12.7147,2.45843,-0.00105915,0.0470584
43,-291.869,232.145,-12.7307,2.45692,-0.000992469,0.0525766
44,-292,232.258,-12.7334,2.45665,0.000889282,0.0555415
45,-292.117,232.361,-12.7256,2.45705,0.00376687,0.0542178
46,-292.235,232.456,-12.7188,2.45827,0.00641434,0.0492577
47,-292.339,232.54,-12.7144,2.45941,0.00717294,0.0444573
48,-292.459,232.662,-12.7142,2.45944,0.00527424,0.0442701
49,-292.579,232.767,-12.7316,2.45785,0.00368912,0.0467419
50,-292.695,232.842,-12.7484,2.45735,0.00444788,0.0479527
51,-292.798,232.944,-12.7403,2.45777,0.00574029,0.0492632
52,-292.921,233.049,-12.7364,2.45742,0.00572622,0.0494998
53,-293.044,233.158,-12.7379,2.45658,0.00645891,0.0478685
54,-293.172,233.267,-12.7443,2.45813,0.0100833,0.0469416
55,-293.296,233.375,-12.7319,2.45907,0.011602,0.0468886
56,-293.427,233.503,-12.6951,2.45866,0.00831286,0.0438123
57,-293.572,233.63,-12.6991,2.45689,-0.000359756,0.0412564
58,-293.701,233.729,-12.7354,2.45692,-0.00275639,0.0405903
59,-293.834,233.831,-12.7454,2.45911,-0.00169827,0.0430174
60,-293.965,233.938,-12.7379,2.45969,-0.00268162,0.0464691
61,-294.088,234.047,-12.7293,2.45918,-0.00492833,0.0479422
62,-294.224,234.17,-12.753,2.45777,-0.00671793,0.0492535
63,-294.355,234.279,-12.7569,2.45667,-0.00606794,0.0500312
64,-294.476,234.392,-12.7616,2.4573,-0.00558888,0.0515307
65,-294.592,234.522,-12.7719,2.45591,-0.0052103,0.0516935
66,-294.717,234.653,-12.7682,2.45515,-0.00376715,0.0491518
67,-294.839,234.768,-12.7725,2.45606,-0.00391532,0.0476442
68,-294.971,234.881,-12.7807,2.45648,-0.00392534,0.0479113
69,-295.099,235.008,-12.7851,2.4557,-0.00399491,0.0476839
70,-295.234,235.122,-12.7848,2.45595,-0.00420106,0.0482022
71,-295.369,235.245,-12.7831,2.45591,-0.00408856,0.0485911
72,-295.501,235.364,-12.7759,2.45549,-0.00447161,0.0484091
73,-295.633,235.479,-12.7777,2.45453,-0.00509544,0.0484228
74,-295.772,235.595,-12.7804,2.45484,-0.00496441,0.048293
75,-295.905,235.698,-12.7901,2.45578,-0.00532965,0.0493213
76,-296.031,235.806,-12.7941,2.45527,-0.00509061,0.0489986
77,-296.175,235.921,-12.7823,2.45481,-0.00457908,0.0470536
78,-296.326,236.044,-12.7714,2.45535,-0.00526276,0.0444699
79,-296.479,236.168,-12.7825,2.45672,-0.00562548,0.0440876
80,-296.618,236.288,-12.7901,2.4567,-0.00352823,0.0439627
81,-296.763,236.398,-12.7877,2.45639,-0.00182199,0.043861
82,-296.904,236.508,-12.7745,2.45707,-0.000912825,0.0452749
83,-297.04,236.63,-12.7692,2.45685,-0.00135854,0.0457577
84,-297.181,236.745,-12.7674,2.45619,-0.00140626,0.0458832
85,-297.332,236.851,-12.7754,2.456,-0.000766349,0.0457608
86,-297.475,236.974,-12.778,2.45555,0.000382108,0.0453313
87,-297.62,237.104,-12.7747,2.45572,0.000432123,0.0449189
88,-297.775,237.23,-12.7777,2.45624,-0.00123121,0.045254
89,-297.912,237.341,-12.7862,2.4573,-0.00156875,0.0460991
90,-298.062,237.467,-12.7837,2.45715,-0.00158676,0.0457873
91,-298.207,237.608,-12.785,2.45701,-0.00227163,0.0445697
92,-298.351,237.734,-12.7899,2.45792,-0.00271975,0.0440708
93,-298.481,237.861,-12.794,2.45862,-0.00289688,0.0429024
94,-298.637,237.986,-12.7996,2.45838,-0.00327483,0.0422122
95,-298.772,238.139,-12.7939,2.45767,-0.0042112,0.0405416
96,-298.916,238.273,-12.7862,2.45814,-0.00580169,0.0391733
97,-299.072,238.387,-12.7829,2.45909,-0.00722624,0.0379629
98,-299.217,238.529,-12.7922,2.45987,-0.00892179,0.0373394
99,-299.356,238.657,-12.8038,2.46085,-0.00894687,0.03659
100,-299.507,238.769,-12.8106,2.46097,-0.00704712,0.0351229
101,-299.665,238.9,-12.8219,2.46143,-0.00592866,0.0348211
102,-299.808,239.015,-12.8279,2.46145,-0.00534893,0.0371233
103,-299.953,239.14,-12.8157,2.46145,-0.00474394,0.0391336
104,-300.12,239.26,-12.8128,2.46208,-0.00526481,0.0379718
105,-300.282,239.385,-12.8247,2.46282,-0.00578303,0.0361884
106,-300.435,239.523,-12.8311,2.46327,-0.00514916,0.0341117
107,-300.584,239.659,-12.8358,2.46372,-0.00432529,0.0330322
108,-300.728,239.787,-12.8379,2.46442,-0.00383733,0.0322376
109,-300.873,239.923,-12.8321,2.46539,-0.00389286,0.0307429
110,-301.032,240.063,-12.832,2.46551,-0.00386755,0.0300241
111,-301.179,240.19,-12.8303,2.46589,-0.00402408,0.0293605
112,-301.332,240.318,-12.8324,2.46558,-0.0035389,0.0284534
113,-301.489,240.457,-12.8394,2.46566,-0.00237557,0.0264303
114,-301.663,240.582,-12.8321,2.46885,-0.00233951,0.0228398
115,-301.816,240.705,-12.8356,2.47101,-0.0049536,0.022035
116,-301.979,240.845,-12.8363,2.473,-0.00600776,0.0194534
117,-302.158,240.97,-12.8489,2.47568,-0.00612634,0.0181432
118,-302.32,241.1,-12.8516,2.47725,-0.00595717,0.0193266
119,-302.49,241.217,-12.8522,2.48041,-0.00524683,0.0181835
120,-302.653,241.349,-12.8577,2.48288,-0.0045684,0.0179325
121,-302.822,241.49,-12.8562,2.48422,-0.00441368,0.0181441
122,-302.986,241.621,-12.857,2.48678,-0.00485388,0.0180596
123,-303.151,241.757,-12.8561,2.48927,-0.00495139,0.0171379
124,-303.325,241.877,-12.8536,2.49271,-0.00439203,0.0158652
125,-303.484,242,-12.8544,2.49549,-0.00452927,0.0146193
126,-303.655,242.127,-12.8539,2.49846,-0.00473981,0.0138606
127,-303.829,242.242,-12.8573,2.50178,-0.00458855,0.0130454
128,-304.006,242.367,-12.8597,2.50575,-0.0041439,0.0124378
129,-304.173,242.49,-12.8582,2.51136,-0.00396416,0.0108684
130,-304.346,242.609,-12.8581,2.51598,-0.00407319,0.0107544
131,-304.519,242.722,-12.8655,2.52066,-0.00432556,0.0122133
132,-304.704,242.831,-12.8615,2.52679,-0.00658775,0.0149978
133,-304.896,242.934,-12.8514,2.53478,-0.00851495,0.0162402
134,-305.086,243.042,-12.8414,2.54423,-0.0102436,0.0145447
135,-305.273,243.166,-12.8466,2.55459,-0.0111621,0.0109717
136,-305.452,243.249,-12.8547,2.56549,-0.0112534,0.00814682
137,-305.655,243.332,-12.8631,2.57705,-0.0108303,0.00783386
138,-305.856,243.415,-12.8635,2.58868,-0.0109791,0.00812084
139,-306.051,243.502,-12.8605,2.60048,-0.0110908,0.00802767
140,-306.253,243.58,-12.8628,2.61276,-0.0113022,0.00814382
141,-306.456,243.646,-12.8623,2.62542,-0.0120733,0.00842488
142,-306.661,243.714,-12.8548,2.63815,-0.0125141,0.00721284
143,-306.855,243.788,-12.8539,2.65223,-0.0123712,0.0041001
144,-307.059,243.879,-12.8642,2.66801,-0.013659,0.00243041
145,-307.27,243.928,-12.8662,2.68263,-0.0138358,0.00428122
146,-307.476,243.979,-12.8679,2.69731,-0.0134136,0.00548856
147,-307.686,244.026,-12.8716,2.71319,-0.0131556,0.00691373
148,-307.901,244.07,-12.8651,2.73064,-0.0132693,0.00799264
149,-308.117,244.103,-12.8546,2.74869,-0.0122454,0.00785653
150,-308.347,244.152,-12.8584,2.76766,-0.0113369,0.00617595
151,-308.574,244.178,-12.8651,2.78821,-0.0111955,0.00514001
152,-308.793,244.208,-12.8686,2.80911,-0.011064,0.00369179
153,-309.017,244.216,-12.8718,2.83019,-0.0110679,0.00296808
154,-309.248,244.227,-12.8775,2.85301,-0.0107984,0.00326227
155,-309.484,244.229,-12.8802,2.87655,-0.0100171,0.00396129
156,-309.71,244.212,-12.875,2.89994,-0.00846546,0.00311484
157,-309.935,244.212,-12.8715,2.92353,-0.00708899,0.00138685
158,-310.172,244.184,-12.872,2.94801,-0.00656481,-0.000416599
159,-310.406,244.153,-12.8757,2.97236,-0.0064457,-0.0008232
160,-310.634,244.107,-12.8714,2.99773,-0.00613683,-0.000820078
161,-310.86,244.056,-12.8798,3.023,-0.00590328,0.000514214
162,-311.089,244.013,-12.8812,3.04785,-0.00574645,0.00152449
163,-311.323,243.951,-12.8803,3.07347,-0.00530644,0.00285958
164,-311.557,243.892,-12.8778,3.09948,-0.00555699,0.00440051
165,-311.789,243.82,-12.8724,3.1258,-0.00598598,0.00478597
166,-312.027,243.748,-12.8796,-3.13055,-0.00576882,0.00516568
167,-312.261,243.667,-12.8782,-3.10372,-0.00423113,0.00525479
168,-312.487,243.572,-12.8838,-3.07693,-0.00354256,0.00520526
169,-312.731,243.478,-12.8826,-3.04981,-0.00434361,0.00574839
170,-312.974,243.366,-12.8894,-3.02174,-0.00485093,0.00638373
171,-313.215,243.252,-12.8959,-2.9936,-0.00466593,0.00749545
172,-313.449,243.139,-12.9064,-2.96531,-0.00364285,0.0087194
173,-313.678,243.013,-12.9041,-2.93684,-0.00126718,0.0103496
174,-313.906,242.882,-12.9119,-2.9088,0.000774617,0.010456
175,-314.145,242.743,-12.9242,-2.87956,0.00112523,0.0112633
176,-314.389,242.571,-12.9301,-2.85077,-0.00137537,0.0132742
177,-314.624,242.405,-12.9272,-2.82271,-0.00324693,0.0133757
178,-314.835,242.239,-12.9326,-2.79383,-0.00460078,0.0103332
179,-315.089,242.07,-12.9404,-2.76477,-0.00635013,0.0102935
180,-315.32,241.885,-12.9466,-2.73644,-0.00556728,0.013858
181,-315.577,241.694,-12.9437,-2.70857,-0.00499741,0.0164852
182,-315.825,241.504,-12.945,-2.68065,-0.00357898,0.0173561
183,-316.07,241.294,-12.9414,-2.65414,-0.00222978,0.0165475
184,-316.318,241.065,-12.9356,-2.62698,-0.00121217,0.014637
185,-316.575,240.834,-12.9425,-2.60157,0.000101341,0.013036
186,-316.805,240.61,-12.9322,-2.57806,0.00104639,0.00986781
187,-317.047,240.404,-12.9439,-2.55687,0.00306942,0.00436096
188,-317.291,240.175,-12.9687,-2.53731,0.00503548,0.00114626
189,-317.535,239.951,-12.9846,-2.51845,0.00500153,0.00253187
190,-317.769,239.699,-12.9825,-2.5006,0.00350164,0.00638883
191,-317.998,239.459,-12.9938,-2.48447,0.000960167,0.00946708
192,-318.236,239.239,-12.9794,-2.46783,-0.0013528,0.0109783
193,-318.458,238.989,-12.9853,-2.45068,-0.0018714,0.0127324
194,-318.668,238.741,-12.986,-2.43442,-0.000574449,0.0130959
195,-318.897,238.491,-12.9889,-2.417,-0.000850077,0.0117645
196,-319.113,238.237,-12.9944,-2.40022,-0.00217886,0.010406
197,-319.338,237.974,-13.0064,-2.38499,-0.00399154,0.00984074
198,-319.57,237.707,-13.0134,-2.37028,-0.00578788,0.0100329
199,-319.816,237.448,-13.0296,-2.35645,-0.00955544,0.0106587
200,-320.071,237.16,-13.0259,-2.3439,-0.0146161,0.0114589
201,-320.306,236.849,-13.0268,-2.33248,-0.0204996,0.0110828
