id,x,y,z,yaw,pitch,roll
1,-285.363,226.537,-12.5996,2.44814,0.0126387,0.0382238
2,-285.129,226.336,-12.6012,2.44791,0.0131263,0.0409769
3,-284.895,226.125,-12.6008,2.44787,0.0146003,0.0423395
4,-285.582,226.744,-12.6071,2.44874,0.0120979,0.0338934
5,-285.794,226.942,-12.6119,2.44995,0.011074,0.03159
6,-286.012,227.14,-12.6179,2.45058,0.0109746,0.0315866
7,-286.226,227.329,-12.6135,2.44974,0.0103594,0.0320098
8,-286.44,227.511,-12.6134,2.45039,0.00956723,0.032762
9,-286.648,227.69,-12.6184,2.45106,0.00787458,0.0340728
10,-286.857,227.877,-12.6143,2.45113,0.00700493,0.0333202
11,-287.056,228.048,-12.5975,2.45139,0.00280693,0.033521
12,-287.252,228.213,-12.5985,2.45099,-0.00190027,0.0359385
13,-287.446,228.374,-12.6189,2.45081,-0.00387257,0.0381718
14,-287.632,228.534,-12.6298,2.45051,-0.00300421,0.0388147
15,-287.821,228.693,-12.6427,2.45094,-0.00164542,0.0398804
16,-287.995,228.845,-12.6338,2.45112,-0.000430799,0.0400347
17,-288.177,229.007,-12.6476,2.45156,-0.000586085,0.0407851
18,-288.354,229.148,-12.664,2.45199,0.00173428,0.041152
19,-288.515,229.289,-12.6716,2.45273,0.00528689,0.04052
20,-288.676,229.428,-12.6635,2.45312,0.00666478,0.0376201
21,-288.844,229.572,-12.6557,2.45349,0.00637592,0.0352114
22,-289.002,229.71,-12.6622,2.45455,0.00585719,0.0347391
23,-289.156,229.841,-12.6741,2.4543,0.00671807,0.0370897
24,-289.285,229.986,-12.6781,2.45403,0.00993775,0.0379046
25,-289.473,230.09,-12.6935,2.45471,0.0123277,0.0415481
26,-289.598,230.247,-12.6816,2.45599,0.0141225,0.0422872
27,-289.739,230.369,-12.678,2.45635,0.0143785,0.0441047
28,-289.919,230.472,-12.6869,2.45595,0.0135104,0.0453362
29,-290.061,230.594,-12.6786,2.45681,0.011764,0.0445998
30,-290.199,230.709,-12.6907,2.45844,0.00938721,0.0447382
31,-290.335,230.828,-12.68,2.45835,0.00836113,0.043247
32,-290.463,230.949,-12.6624,2.45877,0.00565164,0.041217
33,-290.583,231.062,-12.674,2.45743,0.00172254,0.0423463
34,-290.726,231.181,-12.6664,2.45716,-0.000779277,0.0422782
35,-290.844,231.299,-12.619,2.45706,-0.00675275,0.0401986
36,-290.969,231.431,-12.6282,2.45622,-0.0153286,0.0403214
37,-291.105,231.543,-12.668,2.45672,-0.0154729,0.0405181
38,-291.229,231.636,-12.7204,2.45655,-0.00910126,0.0412945
39,-291.345,231.741,-12.7281,2.45822,0.000281346,0.0405223
40,-291.468,231.834,-12.7159,2.45828,0.00539999,0.0414662
41,-291.591,231.943,-12.6988,2.45796,0.00266052,0.0433033
42,-291.715,232.064,-12.7187,2.45687,-0.000883841,0.0473909
43,-291.848,232.157,-12.7382,2.45574,-0.00067923,0.0528777
44,-291.978,232.265,-12.7445,2.45501,0.00128318,0.0566494
45,-292.098,232.37,-12.7349,2.45538,0.00415233,0.0553289
46,-292.205,232.468,-12.7311,2.45603,0.00683297,0.0505863
47,-292.313,232.568,-12.7257,2.45734,0.00758992,0.0454289
48,-292.429,232.668,-12.7288,2.45745,0.00589788,0.0455522
49,-292.543,232.773,-12.7422,2.45579,0.00428492,0.047688
50,-292.666,232.863,-12.7599,2.45541,0.0048147,0.0489458
51,-292.774,232.966,-12.751,2.45595,0.00603036,0.0503728
52,-292.894,233.074,-12.7486,2.4552,0.0059193,0.0505189
53,-293.016,233.179,-12.7493,2.45449,0.00687006,0.0487341
54,-293.145,233.287,-12.7594,2.45611,0.0104819,0.0480725
55,-293.27,233.408,-12.7474,2.4571,0.0118296,0.048161
56,-293.392,233.514,-12.7115,2.45666,0.00848366,0.044991
57,-293.537,233.646,-12.7216,2.45516,-4.30982e-05,0.0424969
58,-293.672,233.75,-12.7553,2.45524,-0.00253125,0.0421912
59,-293.8,233.857,-12.7597,2.45749,-0.00117693,0.0436886
60,-293.926,233.966,-12.7538,2.45817,-0.00224603,0.0470489
61,-294.053,234.079,-12.743,2.45765,-0.00446114,0.0484698
62,-294.189,234.206,-12.7688,2.45631,-0.00630725,0.0499522
63,-294.317,234.313,-12.7731,2.45533,-0.00580556,0.0507898
64,-294.448,234.42,-12.7725,2.45603,-0.00535344,0.0520766
65,-294.573,234.542,-12.7814,2.45503,-0.00495963,0.052021
66,-294.704,234.66,-12.7782,2.4543,-0.00334054,0.0497329
67,-294.83,234.778,-12.7824,2.45541,-0.00357009,0.0481119
68,-294.958,234.895,-12.7911,2.45588,-0.00365854,0.048148
69,-295.093,235.02,-12.7913,2.45527,-0.00387662,0.0478753
70,-295.226,235.131,-12.7941,2.45547,-0.00415512,0.0485333
71,-295.358,235.251,-12.795,2.45538,-0.00386978,0.0491548
72,-295.492,235.369,-12.7894,2.4549,-0.00439793,0.0490935
73,-295.624,235.484,-12.7895,2.45418,-0.00492418,0.0489184
74,-295.763,235.599,-12.7894,2.45447,-0.00485154,0.0488095
75,-295.897,235.706,-12.7968,2.4553,-0.00530357,0.0494672
76,-296.021,235.815,-12.7985,2.45461,-0.00506792,0.0490103
77,-296.161,235.929,-12.7931,2.45392,-0.00437451,0.0474537
78,-296.305,236.052,-12.7848,2.45399,-0.00474251,0.0450876
79,-296.449,236.179,-12.7962,2.45534,-0.0050853,0.0447002
80,-296.592,236.308,-12.8016,2.45535,-0.00315647,0.0444566
81,-296.742,236.43,-12.8031,2.45516,-0.00148718,0.0445969
82,-296.88,236.55,-12.7914,2.45548,-0.000779518,0.0459766
83,-297.013,236.674,-12.7871,2.45551,-0.00120609,0.0464409
84,-297.159,236.797,-12.785,2.45493,-0.00124221,0.0461219
85,-297.295,236.916,-12.7895,2.45472,-0.000538011,0.0456545
86,-297.439,237.038,-12.7964,2.45427,0.000832939,0.0453778
87,-297.577,237.16,-12.791,2.45431,0.000814245,0.0448347
88,-297.731,237.293,-12.791,2.45504,-0.000917255,0.0451458
89,-297.866,237.407,-12.7981,2.45595,-0.00113301,0.0457957
90,-298.014,237.539,-12.7933,2.4557,-0.0013087,0.0455294
91,-298.157,237.672,-12.8004,2.45574,-0.00215167,0.044592
92,-298.299,237.802,-12.8049,2.45633,-0.0023757,0.0441475
93,-298.44,237.917,-12.8101,2.45696,-0.00249938,0.0435555
94,-298.588,238.049,-12.8137,2.4566,-0.00293963,0.0425049
95,-298.734,238.19,-12.8122,2.45606,-0.00391951,0.0411972
96,-298.88,238.316,-12.8061,2.45652,-0.00549015,0.0400955
97,-299.033,238.44,-12.8069,2.45721,-0.00711177,0.038941
98,-299.184,238.579,-12.8113,2.45835,-0.00902108,0.0375194
99,-299.324,238.702,-12.8216,2.45933,-0.00905898,0.0367925
100,-299.476,238.825,-12.8333,2.45943,-0.00732316,0.0355884
101,-299.627,238.959,-12.8384,2.45982,-0.00605599,0.0349699
102,-299.772,239.081,-12.8478,2.46022,-0.00530323,0.0375957
103,-299.923,239.192,-12.8404,2.46022,-0.00490189,0.0401097
104,-300.077,239.327,-12.8284,2.46097,-0.00522784,0.0381583
105,-300.231,239.456,-12.8339,2.46164,-0.00566616,0.0358672
106,-300.384,239.595,-12.8428,2.46192,-0.00507846,0.0339666
107,-300.53,239.724,-12.8431,2.46251,-0.0040483,0.0328198
108,-300.684,239.845,-12.8491,2.46317,-0.00369917,0.0320466
109,-300.835,239.972,-12.8441,2.46418,-0.0037515,0.0309849
110,-300.986,240.104,-12.8472,2.46434,-0.00385418,0.030426
111,-301.143,240.241,-12.8469,2.46452,-0.00419948,0.0298702
112,-301.294,240.367,-12.8482,2.46447,-0.00378476,0.0286018
113,-301.454,240.498,-12.8499,2.46468,-0.00243311,0.0266438
114,-301.627,240.633,-12.8447,2.4676,-0.00226024,0.0230896
115,-301.779,240.768,-12.847,2.46983,-0.00512902,0.0218484
116,-301.938,240.9,-12.8447,2.47193,-0.0058814,0.0195422
117,-302.116,241.024,-12.8556,2.47457,-0.00609395,0.0182436
118,-302.283,241.148,-12.8564,2.47645,-0.00578848,0.0194225
119,-302.443,241.264,-12.8607,2.47944,-0.00521232,0.0184263
120,-302.612,241.397,-12.8704,2.48197,-0.00469426,0.0183422
121,-302.781,241.532,-12.8667,2.48358,-0.00453338,0.0184149
122,-302.948,241.666,-12.8616,2.48582,-0.00467994,0.0178008
123,-303.117,241.795,-12.8636,2.48833,-0.00486235,0.0172229
124,-303.29,241.922,-12.8586,2.49161,-0.00442809,0.0160359
125,-303.452,242.041,-12.864,2.49463,-0.00474019,0.0151861
126,-303.625,242.166,-12.8632,2.49785,-0.0049345,0.0143013
127,-303.797,242.281,-12.8678,2.50087,-0.00484235,0.0135549
128,-303.975,242.405,-12.8678,2.50493,-0.00426353,0.0127406
129,-304.146,242.523,-12.8693,2.51048,-0.0041183,0.0113596
130,-304.321,242.644,-12.8703,2.51522,-0.00415599,0.0112404
131,-304.496,242.753,-12.8761,2.51985,-0.00441167,0.0127232
132,-304.68,242.872,-12.8746,2.52607,-0.00655944,0.015571
133,-304.867,242.984,-12.862,2.53388,-0.00861432,0.0168397
134,-305.06,243.09,-12.8527,2.54371,-0.0105528,0.0150657
135,-305.244,243.196,-12.8553,2.55384,-0.0113618,0.0112348
136,-305.435,243.278,-12.8648,2.56485,-0.0118153,0.00854554
137,-305.63,243.364,-12.8739,2.57633,-0.011437,0.00795197
138,-305.831,243.45,-12.876,2.5879,-0.0115239,0.00826206
139,-306.029,243.534,-12.8705,2.59975,-0.0117626,0.00811479
140,-306.231,243.608,-12.8726,2.61238,-0.0119397,0.00813487
141,-306.436,243.675,-12.8708,2.62515,-0.0127605,0.0082889
142,-306.636,243.745,-12.864,2.63784,-0.0129648,0.0071266
143,-306.834,243.819,-12.8625,2.65206,-0.0127207,0.00439369
144,-307.042,243.901,-12.8721,2.66773,-0.0139762,0.002662
145,-307.247,243.96,-12.873,2.68225,-0.014161,0.00432558
146,-307.449,244.011,-12.8726,2.69706,-0.0134582,0.00552321
147,-307.653,244.059,-12.8762,2.71286,-0.0132423,0.0067201
148,-307.871,244.108,-12.8692,2.73031,-0.0132215,0.00785282
149,-308.087,244.142,-12.8602,2.74836,-0.0122167,0.0077496
150,-308.315,244.181,-12.8622,2.76746,-0.0112745,0.00621741
151,-308.545,244.21,-12.8675,2.78828,-0.0108646,0.00524022
152,-308.766,244.232,-12.8711,2.8092,-0.0108598,0.00372837
153,-308.985,244.242,-12.8755,2.83024,-0.0109912,0.00271679
154,-309.216,244.255,-12.8794,2.85294,-0.0105245,0.00292963
155,-309.455,244.25,-12.8814,2.87654,-0.00986597,0.00381781
156,-309.682,244.24,-12.8769,2.89991,-0.00855324,0.00292269
157,-309.91,244.236,-12.8726,2.92385,-0.00691538,0.00106775
158,-310.143,244.211,-12.8723,2.94809,-0.00627652,-0.000776678
159,-310.375,244.173,-12.8745,2.97256,-0.00614651,-0.0010793
160,-310.609,244.132,-12.8717,2.99784,-0.00590829,-0.00102415
161,-310.834,244.085,-12.8797,3.02325,-0.00555699,0.000190603
162,-311.061,244.037,-12.8828,3.04808,-0.00553878,0.00121056
163,-311.294,243.981,-12.884,3.07346,-0.00522535,0.00232969
164,-311.53,243.923,-12.8819,3.09928,-0.00560249,0.00371449
165,-311.767,243.847,-12.8773,3.1258,-0.00606424,0.00416798
166,-312.001,243.772,-12.8837,-3.13062,-0.00571555,0.00455473
167,-312.24,243.692,-12.8828,-3.10384,-0.00434211,0.00484257
168,-312.465,243.592,-12.8887,-3.07696,-0.00374142,0.00505552
169,-312.701,243.499,-12.8868,-3.0501,-0.00426027,0.00566175
170,-312.946,243.389,-12.8968,-3.02208,-0.00459826,0.00641045
171,-313.183,243.27,-12.9039,-2.99384,-0.00435622,0.00751792
172,-313.416,243.159,-12.9133,-2.96545,-0.00333526,0.0086714
173,-313.649,243.033,-12.9092,-2.93715,-0.00111419,0.0102226
174,-313.871,242.904,-12.9173,-2.90902,0.0013053,0.0102734
175,-314.11,242.76,-12.9275,-2.87965,0.00118242,0.0112258
176,-314.349,242.605,-12.9357,-2.85062,-0.000992143,0.013146
177,-314.589,242.442,-12.9358,-2.82261,-0.00301032,0.0130844
178,-314.816,242.275,-12.9376,-2.79393,-0.00465677,0.010248
179,-315.064,242.095,-12.9446,-2.76464,-0.00620369,0.010282
180,-315.3,241.905,-12.9529,-2.7363,-0.00537857,0.0136499
181,-315.557,241.712,-12.9486,-2.70821,-0.00480379,0.0163266
182,-315.808,241.512,-12.9528,-2.68014,-0.00343081,0.0171618
183,-316.044,241.304,-12.949,-2.65351,-0.00186668,0.0165045
184,-316.293,241.081,-12.9433,-2.62642,-0.000946181,0.0148364
185,-316.547,240.853,-12.9508,-2.60102,0.00051354,0.0131881
186,-316.796,240.622,-12.9405,-2.57747,0.00145441,0.0095498
187,-317.033,240.412,-12.952,-2.55663,0.0035352,0.00447308
188,-317.277,240.185,-12.9762,-2.53701,0.00533217,0.00123284
189,-317.517,239.962,-12.9912,-2.51827,0.00541289,0.00267093
190,-317.745,239.714,-12.9891,-2.50066,0.00386881,0.00665469
191,-317.987,239.472,-13.0014,-2.48463,0.00122632,0.00959863
192,-318.223,239.249,-12.9885,-2.46783,-0.000909783,0.0109021
193,-318.444,239.008,-12.9923,-2.45102,-0.00121225,0.0128402
194,-318.654,238.752,-12.9938,-2.43432,-0.00018495,0.0134052
195,-318.876,238.498,-12.9982,-2.41689,-0.000408153,0.0118783
196,-319.1,238.252,-13.0081,-2.40026,-0.00150476,0.0109281
197,-319.329,237.984,-13.0124,-2.38496,-0.00376277,0.0099953
198,-319.556,237.722,-13.0213,-2.3702,-0.00539942,0.0100934
199,-319.804,237.455,-13.0375,-2.3564,-0.00939472,0.0112006
200,-320.051,237.168,-13.0319,-2.34396,-0.0140309,0.0119777
201,-320.285,236.864,-13.0312,-2.33253,-0.0200618,0.0110022
