id,x,y,z,yaw,pitch,roll
1,1717.1,1014.01,0,-2.19129,-0.0353564,0.0578886
2,1717.32,1014.23,0,-2.19136,-0.0462366,0.0730722
3,1716.98,1013.74,0,-2.19172,-0.025588,0.0569261
4,1716.75,1013.53,0,-2.189,-0.0169582,0.0297353
5,1716.54,1013.26,0,-2.19331,-0.0209505,0.0348599
6,1716.27,1012.9,0,-2.19638,-0.0269386,0.03885
7,1716.01,1012.62,0,-2.19651,-0.0300245,0.0304139
8,1715.91,1012.31,0,-2.19289,-0.0300401,0.0207019
9,1715.67,1012.05,0,-2.19473,-0.0306314,0.0188265
10,1715.51,1011.87,0,-2.19368,-0.0299385,0.0126873
11,1715.32,1011.52,0,-2.19431,-0.0283013,0.0191537
12,1715.05,1011.23,0,-2.19572,-0.0263853,0.0151837
13,1714.89,1010.95,0,-2.19629,-0.0255441,0.0167917
14,1714.62,1010.58,0,-2.19742,-0.0258622,0.0175674
15,1714.42,1010.3,0,-2.19789,-0.024475,0.0192662
16,1714.27,1010.08,0,-2.19766,-0.0226066,0.0231127
17,1714.05,1009.77,0,-2.19913,-0.023427,0.0215274
18,1713.76,1009.38,0,-2.20031,-0.0246743,0.0236397
19,1713.54,1009.12,0,-2.19988,-0.0230232,0.0156551
20,1713.31,1008.89,0,-2.20268,-0.0265865,0.0164977
21,1713.12,1008.54,0,-2.20036,-0.0251357,0.00836093
22,1712.94,1008.3,0,-2.20253,-0.024954,0.0168831
23,1712.72,1007.96,0,-2.20098,-0.0251139,0.0141195
24,1712.45,1007.72,0,-2.20178,-0.0259943,0.012969
25,1712.22,1007.41,0,-2.20009,-0.0243036,0.0084665
26,1712,1007.14,0,-2.20025,-0.025448,0.00678124
27,1711.82,1006.88,0,-2.20144,-0.0264978,0.00709377
28,1711.61,1006.62,0,-2.20083,-0.0232478,0.00390385
29,1711.44,1006.37,0,-2.2006,-0.0192401,2.62314e-05
30,1711.25,1006.11,0,-2.2005,-0.0209375,0.000796162
31,1711.09,1005.86,0,-2.20072,-0.0209065,-0.00118011
32,1710.91,1005.54,0,-2.19907,-0.0177891,-0.0042315
33,1710.73,1005.32,0,-2.19839,-0.0182968,-0.00438428
34,1710.53,1005.03,0,-2.19744,-0.0167599,-0.00587232
35,1710.3,1004.77,0,-2.19544,-0.015379,-0.00807512
36,1710.21,1004.58,0,-2.19636,-0.015929,-0.00907868
37,1710.04,1004.36,0,-2.19555,-0.0133381,-0.00933661
38,1709.81,1004.08,0,-2.19291,-0.0141463,-0.0130308
39,1709.59,1003.78,0,-2.19118,-0.0138834,-0.0142471
40,1709.52,1003.39,0,-2.18635,-0.0110272,-0.0195804
41,1709.31,1003.13,0,-2.18454,-0.0117403,-0.0208817
42,1708.93,1002.64,0,-2.18072,-0.0118068,-0.0230864
43,1708.78,1002.39,0,-2.17963,-0.01197,-0.0226383
44,1708.55,1002.14,0,-2.17738,-0.010062,-0.0258118
45,1708.4,1001.89,0,-2.1767,-0.00976912,-0.0267514
46,1708.18,1001.65,0,-2.17505,-0.0115406,-0.0286012
47,1708.01,1001.37,0,-2.17267,-0.00984719,-0.0250845
48,1707.89,1001.16,0,-2.17115,-0.00633593,-0.015325
49,1707.68,1000.95,0,-2.16903,-0.00587484,-0.0172612
50,1707.54,1000.75,0,-2.16702,-0.00671538,-0.0159014
51,1707.33,1000.51,0,-2.16556,-0.00774507,-0.0194547
52,1707.23,1000.29,0,-2.16433,-0.00764727,-0.0155279
53,1707.01,1000.01,0,-2.16195,-0.0106397,-0.0180765
54,1706.92,999.773,0,-2.16061,-0.0105076,-0.0147575
55,1706.77,999.554,0,-2.1592,-0.00962848,-0.0187593
56,1706.59,999.36,0,-2.15718,-0.0104999,-0.0190897
57,1706.4,999.13,0,-2.15468,-0.00786087,-0.0261741
58,1706.27,998.909,0,-2.15254,-0.00811054,-0.0245279
59,1706.08,998.634,0,-2.15145,-0.00837308,-0.024869
60,1705.9,998.409,0,-2.14806,-0.00978634,-0.0212388
61,1705.73,998.162,0,-2.14581,-0.0100507,-0.0218593
62,1705.61,997.959,0,-2.14426,-0.0100316,-0.0250702
63,1705.47,997.746,0,-2.1426,-0.00944221,-0.0262044
64,1705.3,997.552,0,-2.14021,-0.00750625,-0.0328776
65,1705.13,997.359,0,-2.1402,-0.00885703,-0.0337342
66,1704.98,997.155,0,-2.1384,-0.00709416,-0.0373469
67,1704.89,996.973,0,-2.13803,-0.00807032,-0.0229972
68,1704.76,996.683,0,-2.13602,-0.0117383,-0.0120557
69,1704.58,996.544,0,-2.13563,-0.0127083,-0.0153859
70,1704.4,996.235,0,-2.13224,-0.011571,-0.0146694
71,1704.25,996.057,0,-2.1295,-0.0101208,-0.0192117
72,1704.07,995.803,0,-2.12861,-0.0113642,-0.0190204
73,1703.88,995.497,0,-2.12695,-0.0110377,-0.0200554
74,1703.76,995.314,0,-2.1265,-0.0122096,-0.0255086
75,1703.62,995.104,0,-2.12604,-0.0119835,-0.0268519
76,1703.43,994.858,0,-2.1235,-0.0137358,-0.0194155
77,1703.06,994.526,0,-2.11996,-0.0130915,-0.0346987
78,1702.9,994.221,0,-2.11927,-0.0147417,-0.0278865
79,1702.57,993.924,0,-2.11574,-0.0135799,-0.0371994
80,1702.49,993.747,0,-2.11692,-0.0134624,-0.0370247
81,1702.27,993.397,0,-2.11522,-0.0180996,-0.0348916
82,1702.16,993.215,0,-2.11566,-0.018474,-0.0334807
83,1702.05,993.042,0,-2.1177,-0.0179549,-0.0368857
84,1701.86,992.773,0,-2.11898,-0.0200687,-0.033283
85,1701.67,992.459,0,-2.11904,-0.0198559,-0.034008
86,1701.51,992.186,0,-2.11821,-0.02105,-0.0303182
87,1701.22,991.931,0,-2.11749,-0.011522,-0.0512528
88,1701.21,991.813,0,-2.11815,-0.00902821,-0.0541252
89,1701.06,991.531,0,-2.12097,-0.00917651,-0.0500443
90,1700.84,991.193,0,-2.12102,-0.00844149,-0.03766
91,1700.73,990.959,0,-2.12213,-0.00638684,-0.0313277
92,1700.54,990.687,0,-2.12404,-0.00746397,-0.0303377
93,1700.46,990.5,0,-2.12759,-0.00710574,-0.030373
94,1700.24,990.11,0,-2.12963,-0.00964487,-0.0290504
95,1700.04,989.856,0,-2.13109,-0.00826517,-0.0305052
96,1699.84,989.553,0,-2.1329,-0.0100727,-0.0298067
97,1699.69,989.35,0,-2.13673,-0.0100352,-0.0290193
98,1699.49,989.039,0,-2.13713,-0.0095816,-0.024966
99,1699.31,988.763,0,-2.14011,-0.00794405,-0.026803
100,1699.15,988.515,0,-2.14091,-0.00856688,-0.0276385
101,1699.03,988.339,0,-2.14522,-0.00479911,-0.0176002
102,1698.86,988.096,0,-2.14689,-0.00555457,-0.0190006
103,1698.73,987.915,0,-2.14984,-0.00723689,-0.0187246
104,1698.45,987.603,0,-2.14949,-0.00419624,-0.0378465
105,1698.26,987.339,0,-2.1539,-0.00387982,-0.0359626
106,1698.13,987.081,0,-2.1542,-0.00520735,-0.030722
107,1697.97,986.796,0,-2.15791,-0.00126526,-0.0237323
108,1697.91,986.775,0,-2.15845,-0.00397841,-0.0269378
109,1697.66,986.408,0,-2.16098,-0.00478771,-0.0261394
110,1697.45,986.171,0,-2.1646,-0.00562429,-0.0306159
111,1697.35,985.936,0,-2.16441,-0.00485486,-0.0253052
112,1697.16,985.654,0,-2.16737,-0.00473003,-0.0190602
113,1697.03,985.418,0,-2.16748,-0.00514333,-0.0197591
114,1696.86,985.206,0,-2.16923,-0.00613518,-0.0223356
115,1696.69,985.072,0,-2.17421,-0.00405593,-0.0223594
116,1696.53,984.887,0,-2.17604,-0.00924485,-0.0277729
117,1696.34,984.624,0,-2.17569,-0.00626381,-0.038909
118,1696.34,984.54,0,-2.17559,-0.00450621,-0.0292997
119,1696.09,984.284,0,-2.17948,-0.0069511,-0.0273375
120,1695.98,984.047,0,-2.18001,-0.00434153,-0.02922
121,1695.84,983.928,0,-2.18211,-0.00484962,-0.0338261
122,1695.67,983.657,0,-2.18277,-0.00556212,-0.0375467
123,1695.65,983.696,0,-2.18524,-0.0043572,-0.0430735
124,1695.34,983.297,0,-2.1872,-0.00866113,-0.0556335
125,1695.13,983.1,0,-2.19177,-0.00980752,-0.0486066
126,1695.01,982.934,0,-2.19366,-0.0100277,-0.0417805
127,1694.82,982.703,0,-2.19357,-0.00950651,-0.0521634
128,1694.66,982.553,0,-2.19506,-0.00980209,-0.0522087
129,1694.36,982.141,0,-2.19799,-0.0128591,-0.0490069
130,1694.28,982.111,0,-2.20027,-0.0130285,-0.0485277
131,1694.12,981.958,0,-2.19934,-0.0134322,-0.0535727
132,1694.03,981.742,0,-2.19991,-0.0151642,-0.046619
133,1693.87,981.467,0,-2.19922,-0.0129412,-0.0512715
134,1693.67,981.26,0,-2.20187,-0.0136118,-0.048449
135,1693.63,981.166,0,-2.20326,-0.0152395,-0.0334173
136,1693.42,980.952,0,-2.20255,-0.0102708,-0.0526347
137,1693.26,980.769,0,-2.20402,-0.00975287,-0.0530488
138,1693.14,980.598,0,-2.20397,-0.0106098,-0.0531667
139,1693.02,980.458,0,-2.2049,-0.0108546,-0.0517953
140,1692.94,980.44,0,-2.20614,-0.00995687,-0.053839
141,1692.71,980.16,0,-2.2072,-0.010361,-0.055249
142,1692.59,979.959,0,-2.2067,-0.0122145,-0.048853
143,1692.43,979.733,0,-2.20533,-0.0101373,-0.0512981
144,1692.32,979.63,0,-2.20457,-0.00981024,-0.0517945
145,1692.13,979.427,0,-2.20421,-0.00970863,-0.0542011
146,1691.88,979.084,0,-2.20556,-0.0111672,-0.0512615
147,1691.73,978.876,0,-2.20595,-0.0148478,-0.0440892
148,1691.59,978.74,0,-2.20524,-0.0119336,-0.0492682
149,1691.48,978.476,0,-2.20352,-0.0128959,-0.0475472
150,1691.39,978.457,0,-2.20551,-0.0106579,-0.0484188
151,1691.24,978.21,0,-2.20083,-0.00907612,-0.0482062
152,1691.05,978.005,0,-2.19948,-0.00952078,-0.0497895
153,1690.96,977.687,0,-2.19648,-0.0088846,-0.0380747
154,1690.7,977.406,0,-2.19618,-0.00642712,-0.044009
155,1690.63,977.282,0,-2.19486,-0.00703248,-0.0391667
156,1690.55,977.199,0,-2.19285,-0.00553066,-0.0437045
157,1690.24,976.695,0,-2.19094,-0.00717424,-0.0413076
158,1690.18,976.629,0,-2.18868,-0.00653331,-0.0416205
159,1689.95,976.34,0,-2.18717,-0.0069051,-0.0414928
160,1689.76,975.955,0,-2.18625,-0.0120261,-0.0318632
161,1689.66,975.947,0,-2.18572,-0.00925125,-0.038915
162,1689.65,975.861,0,-2.18206,-0.0101937,-0.0366561
163,1689.41,975.566,0,-2.18144,-0.00962589,-0.0386042
164,1689.29,975.525,0,-2.17974,-0.00615627,-0.0505877
165,1689.15,975.375,0,-2.17781,-0.00615471,-0.0519003
166,1689.05,975.225,0,-2.1768,-0.00609767,-0.0517322
167,1688.83,974.91,0,-2.17415,-0.00694454,-0.0483168
168,1688.67,974.685,0,-2.17313,-0.00637837,-0.0493348
169,1688.49,974.465,0,-2.16939,-0.00653611,-0.051505
170,1688.41,974.337,0,-2.16746,-0.00742525,-0.051767
171,1688.17,973.994,0,-2.16622,-0.00797288,-0.0494384
172,1688.01,973.713,0,-2.16566,-0.00951483,-0.0458707
173,1687.98,973.528,0,-2.16188,-0.00812886,-0.0390285
174,1687.83,973.4,0,-2.16176,-0.00923764,-0.0404664
175,1687.69,973.245,0,-2.15936,-0.00956674,-0.0420711
176,1687.59,973.07,0,-2.15729,-0.00883766,-0.0419509
177,1687.4,972.851,0,-2.15492,-0.00849972,-0.0445218
178,1687.27,972.645,0,-2.15422,-0.00971006,-0.0469174
179,1687.08,972.526,0,-2.15363,-0.00817877,-0.0515944
180,1687.02,972.39,0,-2.15274,-0.00911244,-0.0482049
181,1686.84,972.057,0,-2.15002,-0.0126436,-0.0454408
182,1686.57,971.677,0,-2.1502,-0.0155158,-0.047753
183,1686.43,971.431,0,-2.14627,-0.0153878,-0.0464008
184,1686.35,971.278,0,-2.14504,-0.0165217,-0.0548299
185,1686.21,971.075,0,-2.14329,-0.015372,-0.0562116
186,1686.1,970.797,0,-2.1467,-0.0136706,-0.0638052
187,1686.07,970.722,0,-2.14512,-0.0118906,-0.0645255
188,1685.95,970.589,0,-2.14301,-0.0115945,-0.06694
189,1685.86,970.488,0,-2.14303,-0.0124112,-0.0670543
190,1685.65,970.226,0,-2.14204,-0.0135387,-0.0674529
191,1685.62,970.131,0,-2.14081,-0.0119937,-0.0682658
192,1685.53,969.944,0,-2.13939,-0.0128965,-0.0674448
193,1685.33,969.664,0,-2.13836,-0.0134211,-0.0689216
194,1685.26,969.528,0,-2.1375,-0.0134742,-0.0681364
195,1685.23,969.507,0,-2.13528,-0.0105467,-0.0733156
196,1685.14,969.351,0,-2.13403,-0.011111,-0.0712511
197,1685.03,969.218,0,-2.13219,-0.0101122,-0.0723908
198,1684.93,969.13,0,-2.13261,-0.00973681,-0.0772518
199,1684.91,969.042,0,-2.12906,-0.00759442,-0.0787545
200,1684.72,968.716,0,-2.12992,-0.0106228,-0.0725077
201,1684.78,968.803,0,-2.12801,-0.00893759,-0.0760684
202,1684.67,968.63,0,-2.12641,-0.00779441,-0.0773523
203,1684.47,968.255,0,-2.12448,-0.00780197,-0.0806993
204,1684.39,968.184,0,-2.12575,-0.0085377,-0.0798086
205,1684.22,967.92,0,-2.12289,-0.00301439,-0.0742614
206,1684.04,967.628,0,-2.12167,-0.00410305,-0.074729
207,1683.97,967.487,0,-2.11973,-0.00316202,-0.0775367
208,1683.71,967.019,0,-2.11939,-0.00955741,-0.0706782
209,1683.76,966.802,0,-2.12369,-0.0118742,-0.0692386
210,1683.71,966.578,0,-2.12351,-0.0143483,-0.0589872
211,1683.59,966.418,0,-2.12368,-0.0171812,-0.0589366
212,1683.53,966.225,0,-2.11993,-0.0164117,-0.0579407
213,1683.47,966.182,0,-2.11998,-0.0179417,-0.0601242
214,1683.3,965.921,0,-2.11947,-0.0211883,-0.0636035
215,1683.2,965.763,0,-2.11835,-0.0223124,-0.0595314
216,1683.17,965.703,0,-2.11746,-0.0225208,-0.0584386
217,1683.07,965.4,0,-2.11422,-0.0245043,-0.0567183
218,1682.98,965.302,0,-2.11354,-0.0251456,-0.0557131
219,1682.72,964.791,0,-2.1117,-0.0261394,-0.05435
220,1682.75,964.743,0,-2.10825,-0.0262801,-0.0516321
221,1682.58,964.469,0,-2.10703,-0.0250496,-0.0538497
222,1682.56,964.373,0,-2.10601,-0.0238808,-0.0483876
223,1682.52,964.224,0,-2.10348,-0.0216701,-0.0503032
224,1682.32,963.938,0,-2.10302,-0.022017,-0.0518378
225,1682.22,963.896,0,-2.10404,-0.0246166,-0.0571418
226,1681.95,963.594,0,-2.10616,-0.0242427,-0.0546834
227,1681.86,963.482,0,-2.1056,-0.0245579,-0.0549382
228,1681.67,963.116,0,-2.10322,-0.0237287,-0.0503847
229,1681.54,962.943,0,-2.10278,-0.0264247,-0.0515696
230,1681.35,962.627,0,-2.10293,-0.0215287,-0.0505647
231,1681.23,962.426,0,-2.10357,-0.0211364,-0.0485317
232,1681.1,962.252,0,-2.10317,-0.0186628,-0.0525136
233,1680.98,961.991,0,-2.10315,-0.0191405,-0.0466061
234,1680.86,961.771,0,-2.10105,-0.0191005,-0.0485659
235,1680.85,961.563,0,-2.10059,-0.0196866,-0.0449212
236,1680.68,961.279,0,-2.10174,-0.0192582,-0.0364288
237,1680.55,961.152,0,-2.10179,-0.0206481,-0.0404436
238,1680.31,960.996,0,-2.10494,-0.0203901,-0.0382078
239,1680.1,960.626,0,-2.11429,-0.0245526,-0.0269474
240,1679.8,960.276,0,-2.11689,-0.0233781,-0.0304717
241,1679.65,960.054,0,-2.11766,-0.0206876,-0.0323561
242,1679.41,959.866,0,-2.12154,-0.0222964,-0.0362353
243,1679.42,959.516,0,-2.11978,-0.0166316,-0.020631
244,1679.57,959.421,0,-2.1117,-0.0083245,-0.0488433
245,1679.4,959.161,0,-2.11426,-0.00170659,-0.0426689
246,1679.05,958.902,0,-2.11972,-0.00169805,-0.0409878
247,1678.72,958.664,0,-2.12513,0.000263535,-0.0426079
248,1678.66,958.507,0,-2.1233,0.00267527,-0.0449365
249,1678.41,958.154,0,-2.12361,0.000675747,-0.0533595
250,1678.28,957.923,0,-2.12472,-0.00200814,-0.0518463
251,1678.21,957.807,0,-2.12485,-0.00637398,-0.0518848
252,1678.25,957.69,0,-2.124,-0.0131982,-0.0404266
253,1678.09,957.483,0,-2.12609,-0.0154399,-0.0385382
254,1677.89,957.148,0,-2.12663,-0.018924,-0.0362095
255,1677.91,957.029,0,-2.12444,-0.0173671,-0.0348104
256,1677.81,956.69,0,-2.12095,-0.0215574,-0.0356878
257,1677.64,956.438,0,-2.12397,-0.022111,-0.0361508
258,1677.59,956.173,0,-2.12342,-0.023163,-0.0379541
259,1677.4,955.924,0,-2.12733,-0.0185561,-0.039984
260,1677.25,955.714,0,-2.12726,-0.0149533,-0.0414342
261,1677.06,955.353,0,-2.12678,-0.0195057,-0.0339336
262,1676.87,955.095,0,-2.12864,-0.0224303,-0.0332908
263,1676.75,954.856,0,-2.12723,-0.0243233,-0.0319353
264,1676.63,954.607,0,-2.12718,-0.02541,-0.0319201
265,1676.44,954.382,0,-2.12897,-0.0240855,-0.0293703
266,1676.28,954.173,0,-2.12974,-0.0253112,-0.025854
267,1676.2,953.976,0,-2.12789,-0.0222817,-0.0287428
268,1675.91,953.813,0,-2.13273,-0.0211587,-0.0344056
269,1675.66,953.713,0,-2.1384,-0.0154279,-0.0305871
270,1675.55,953.546,0,-2.13901,-0.0162187,-0.030406
271,1675.42,953.306,0,-2.13811,-0.0174735,-0.0306553
272,1675.12,953.014,0,-2.14129,-0.0237487,-0.0309235
273,1675.19,952.699,0,-2.13243,-0.023099,-0.0354524
274,1675.06,952.467,0,-2.13186,-0.0245805,-0.0330589
275,1674.88,952.251,0,-2.13209,-0.0243066,-0.0342557
276,1674.7,951.951,0,-2.13244,-0.0299898,-0.0341844
277,1674.52,951.774,0,-2.13242,-0.0318828,-0.0343381
278,1674.48,951.588,0,-2.12934,-0.0318968,-0.0351095
279,1674.4,951.353,0,-2.12499,-0.0335184,-0.036778
280,1674.38,951.118,0,-2.11859,-0.0290686,-0.0391869
281,1674.18,950.939,0,-2.11636,-0.029179,-0.0400223
282,1673.95,950.633,0,-2.11558,-0.0259275,-0.0398299
283,1673.72,950.442,0,-2.1108,-0.0209799,-0.0395224
284,1673.61,950.157,0,-2.10443,-0.0186374,-0.0375033
285,1673.35,950.024,0,-2.10237,-0.0136054,-0.0322244
286,1673.33,949.626,0,-2.091,-0.0190639,-0.0425242
287,1673.11,949.369,0,-2.08409,-0.0186048,-0.0431515
288,1673.02,949.176,0,-2.07707,-0.0183378,-0.0386757
289,1672.8,948.985,0,-2.06955,-0.0185136,-0.0325294
290,1672.67,948.858,0,-2.06323,-0.0170663,-0.0366472
291,1672.55,948.612,0,-2.05043,-0.0152232,-0.0349112
292,1672.61,948.359,0,-2.03773,-0.0118983,-0.0314511
293,1672.53,948.209,0,-2.02504,-0.0116401,-0.0324203
294,1672.43,947.931,0,-2.01533,-0.00749546,-0.0307001
295,1672.23,947.535,0,-1.99957,-0.0179077,-0.0435508
296,1672.16,947.343,0,-1.98918,-0.0169339,-0.0425797
297,1672.06,947.171,0,-1.97413,-0.0115896,-0.0502871
298,1671.8,946.733,0,-1.96269,-0.0138495,-0.0470692
299,1671.58,946.569,0,-1.95054,-0.00909227,-0.0393888
300,1671.36,946.426,0,-1.94415,-0.0099973,-0.0433882
301,1671.21,946.061,0,-1.92857,-0.00970846,-0.038552
302,1671.44,945.7,0,-1.90929,-0.00899835,-0.028886
303,1671.7,945.615,0,-1.88396,-0.000767867,-0.0235276
304,1671.63,945.339,0,-1.87138,-0.00342377,-0.0221189
305,1671.65,945.08,0,-1.848,-0.00130565,-0.0207486
306,1671.4,944.861,0,-1.83971,-0.00395059,-0.0213
307,1671.11,944.63,0,-1.82544,-0.00432193,-0.0223965
308,1671.61,944.341,0,-1.79844,-0.00171625,-0.017392
309,1671.73,944.86,0,-1.78987,0.0014579,-0.0117625
310,1671.53,944.691,0,-1.78102,0.0057877,-0.0111557
311,1671.54,944.323,0,-1.75715,0.00563379,-0.00983652
312,1671.41,944.065,0,-1.74581,0.00294461,-0.0113091
313,1671.38,943.8,0,-1.72519,0.00351839,-0.00764917
314,1671.3,943.457,0,-1.71146,0.00321194,-0.00785948
315,1671.27,943.234,0,-1.69264,0.00285052,-0.00691765
316,1671.15,942.857,0,-1.67811,-9.2237e-05,-0.00892168
317,1671.12,942.62,0,-1.65878,-0.00562076,-0.0102064
318,1671,942.34,0,-1.64725,-0.00633757,-0.00922597
319,1671.08,942.181,0,-1.62409,-0.00426214,-0.0076771
320,1671.07,941.947,0,-1.61059,-0.00153589,-0.00452945
321,1671.01,941.482,0,-1.58621,-0.000131427,-0.0104523
322,1671.12,941.036,0,-1.57111,0.00233086,-0.0162634
323,1671.31,940.759,0,-1.54281,0.0043076,-0.0161277
324,1670.42,939.793,0,-1.53365,-0.000409534,-0.0432122
325,1670.17,939.567,0,-1.52027,0.00371767,-0.03671
326,1670.16,939.306,0,-1.50768,0.00185722,-0.0360836
327,1670.27,938.975,0,-1.48314,0.00210841,-0.0348487
328,1670.23,938.688,0,-1.46992,0.00294878,-0.0357059
329,1670.75,938.237,0,-1.43463,0.00234438,-0.0343368
330,1670.72,937.941,0,-1.42331,0.00143548,-0.0325202
331,1670.86,937.782,0,-1.39786,0.00270562,-0.0292825
332,1670.8,937.453,0,-1.38969,0.00548988,-0.0298742
333,1670.47,937.362,0,-1.37515,0.00773723,-0.0276401
334,1670.42,937.063,0,-1.36605,0.00809443,-0.0244655
335,1671.32,936.931,0,-1.3274,0.0100168,-0.0145618
336,1671.29,937.378,0,-1.32866,0.0132947,-0.00339091
337,1671.46,937.159,0,-1.30583,0.0130001,0.00364375
338,1671.47,936.951,0,-1.29583,0.0129308,0.00554343
339,1671.59,936.661,0,-1.27164,0.00830467,0.00373819
340,1671.56,936.364,0,-1.2607,0.00700993,0.00827231
341,1671.71,936.115,0,-1.24147,0.00417874,0.0188467
342,1671.88,935.832,0,-1.2262,0.0038878,0.0207707
343,1671.92,935.636,0,-1.20876,0.00406667,0.0224931
344,1671.87,935.302,0,-1.20007,0.00134555,0.0271305
345,1672.08,934.931,0,-1.1763,-0.00443627,0.0366722
346,1672.22,934.68,0,-1.16249,-0.00849227,0.0322116
347,1672.14,934.379,0,-1.15037,-0.0102751,0.0240055
348,1672.33,934.151,0,-1.13503,-0.00940916,0.0220112
349,1672.51,933.871,0,-1.11526,-0.00990319,0.0282506
350,1672.68,933.726,0,-1.10071,-0.0075584,0.0336067
351,1672.67,933.424,0,-1.08708,-0.00398672,0.0254688
352,1672.83,933.226,0,-1.07166,-0.00288701,0.0249394
353,1672.91,932.922,0,-1.05066,-0.00459614,0.0210124
354,1672.97,932.6,0,-1.03954,-0.00355616,0.021032
355,1672.96,932.109,0,-1.02286,-0.00632467,0.016374
356,1673.12,932.05,0,-1.01024,-0.000801843,0.020898
357,1673.34,931.949,0,-0.991797,0.0010939,0.0272633
358,1673.53,931.659,0,-0.977847,0.000437247,0.029256
359,1673.74,931.477,0,-0.956954,0.00483371,0.026001
360,1673.79,931.232,0,-0.951002,0.00739254,0.0179496
361,1674.03,931.02,0,-0.935942,0.00661456,0.0188633
362,1674.17,930.837,0,-0.92541,0.00902529,0.0154799
363,1674.3,930.569,0,-0.910782,0.00798569,0.0176095
364,1674.52,930.383,0,-0.895812,0.00619451,0.0170788
365,1674.6,930.086,0,-0.880959,0.00528988,0.0141942
366,1674.78,929.917,0,-0.871885,0.00468959,0.0170685
367,1674.88,929.598,0,-0.858741,0.00438598,0.0160116
368,1675.08,929.372,0,-0.848899,0.00355638,0.00981354
369,1675.3,929.172,0,-0.838587,0.00183825,0.0126027
370,1675.24,928.4,0,-0.816842,-0.00239839,0.00789213
371,1675.45,928.251,0,-0.804033,-0.00316864,0.0101401
372,1675.6,927.964,0,-0.80128,-0.00923635,0.00523071
373,1675.85,927.824,0,-0.787056,-0.00968269,0.0053264
374,1675.99,927.537,0,-0.779177,-0.012332,0.00314689
375,1676.19,927.268,0,-0.768629,-0.0127447,0.000714867
376,1676.43,927.134,0,-0.762977,-0.0119176,-0.00341958
377,1676.64,926.88,0,-0.755234,-0.0149177,-0.00902507
378,1676.92,926.697,0,-0.746549,-0.0143449,-0.0113778
379,1677.07,926.53,0,-0.739381,-0.0146376,-0.0180567
380,1677.69,926.091,0,-0.729553,-0.0114013,-0.0191526
