id,x,y,z,yaw,pitch,roll
1,-285.365,226.537,-12.6037,2.44815,0.0125338,0.0385892
2,-285.158,226.362,-12.5984,2.44786,0.0130041,0.0410956
3,-284.9,226.129,-12.6005,2.44785,0.0145507,0.0424314
4,-285.572,226.74,-12.6067,2.44868,0.0121588,0.033853
5,-285.783,226.932,-12.6126,2.44981,0.0111956,0.0315669
6,-286.004,227.136,-12.6177,2.45057,0.0110091,0.0315241
7,-286.218,227.324,-12.6148,2.44967,0.0104164,0.0319953
8,-286.431,227.504,-12.6137,2.45026,0.00957384,0.0327596
9,-286.638,227.682,-12.6157,2.45092,0.00809266,0.0339205
10,-286.847,227.868,-12.6155,2.45109,0.00705521,0.0334119
11,-287.052,228.044,-12.5982,2.45138,0.00284552,0.0335094
12,-287.249,228.212,-12.5987,2.45098,-0.00184475,0.0358231
13,-287.437,228.369,-12.6174,2.45078,-0.00380922,0.0380289
14,-287.618,228.52,-12.6297,2.45047,-0.00298054,0.0388571
15,-287.811,228.683,-12.6414,2.45091,-0.00159752,0.0397511
16,-287.977,228.828,-12.6357,2.45111,-0.000486767,0.040077
17,-288.164,228.993,-12.6465,2.45149,-0.000464366,0.0406858
18,-288.338,229.133,-12.6645,2.45204,0.00172518,0.04119
19,-288.51,229.285,-12.6728,2.45275,0.00524688,0.0405595
20,-288.663,229.418,-12.6656,2.45304,0.00658227,0.0377741
21,-288.826,229.554,-12.6567,2.45349,0.0063673,0.0352129
22,-288.99,229.701,-12.6616,2.45442,0.00586952,0.0346692
23,-289.138,229.827,-12.671,2.45428,0.00677391,0.0367825
24,-289.277,229.979,-12.6781,2.45402,0.00989391,0.0378618
25,-289.461,230.083,-12.6928,2.45478,0.0123777,0.0413068
26,-289.587,230.238,-12.6824,2.45591,0.0141615,0.0423959
27,-289.73,230.363,-12.6781,2.45634,0.0144618,0.0439042
28,-289.914,230.47,-12.6862,2.45595,0.0135723,0.0450957
29,-290.056,230.592,-12.6782,2.45685,0.0118234,0.0445135
30,-290.196,230.708,-12.6898,2.45836,0.009404,0.0446829
31,-290.327,230.821,-12.678,2.45836,0.00855494,0.0432728
32,-290.461,230.948,-12.6618,2.45872,0.00568569,0.0411801
33,-290.581,231.06,-12.673,2.45741,0.001803,0.0422607
34,-290.724,231.178,-12.6649,2.4572,-0.000692377,0.0422363
35,-290.841,231.298,-12.6189,2.45705,-0.00669605,0.0401962
36,-290.967,231.431,-12.6272,2.45619,-0.0152792,0.0402615
37,-291.099,231.538,-12.6655,2.45663,-0.0154057,0.0403084
38,-291.228,231.636,-12.7201,2.45652,-0.00912898,0.0412607
39,-291.343,231.739,-12.7286,2.45823,0.000255809,0.0405539
40,-291.466,231.832,-12.7171,2.45828,0.00534895,0.0415782
41,-291.589,231.941,-12.6984,2.45795,0.00269937,0.0432692
42,-291.713,232.062,-12.717,2.45685,-0.000801776,0.047321
43,-291.842,232.154,-12.7356,2.45567,-0.000642465,0.0524922
44,-291.966,232.252,-12.7445,2.45488,0.00132972,0.0564363
45,-292.096,232.368,-12.7356,2.45536,0.00407112,0.0553725
46,-292.203,232.465,-12.7324,2.45603,0.00675968,0.0507078
47,-292.311,232.566,-12.7261,2.45725,0.00753867,0.0454719
48,-292.426,232.665,-12.7281,2.4574,0.00594312,0.0455505
49,-292.539,232.768,-12.7406,2.45575,0.0043831,0.0475687
50,-292.648,232.848,-12.7572,2.4552,0.00490359,0.0487822
51,-292.772,232.964,-12.7509,2.4559,0.00604134,0.0503629
52,-292.878,233.056,-12.7488,2.45516,0.00606428,0.0505391
53,-293.001,233.162,-12.7503,2.45451,0.00684562,0.0489509
54,-293.135,233.278,-12.761,2.45593,0.0103057,0.0482569
55,-293.268,233.406,-12.7472,2.45707,0.0117972,0.0481737
56,-293.39,233.513,-12.7112,2.45665,0.00852101,0.0449903
57,-293.535,233.644,-12.7203,2.45515,7.87514e-05,0.0424746
58,-293.67,233.749,-12.7546,2.45521,-0.00246008,0.0421455
59,-293.797,233.856,-12.7596,2.45743,-0.00117031,0.0437168
60,-293.925,233.965,-12.7535,2.45817,-0.00221398,0.0470225
61,-294.053,234.077,-12.7428,2.45769,-0.0044288,0.048477
62,-294.187,234.203,-12.7671,2.45632,-0.00620005,0.0498555
63,-294.313,234.308,-12.7723,2.4554,-0.00578749,0.0506864
64,-294.438,234.411,-12.7718,2.45603,-0.00535957,0.0519789
65,-294.563,234.527,-12.7814,2.45517,-0.00494719,0.0521405
66,-294.702,234.654,-12.7792,2.45436,-0.00335544,0.0498519
67,-294.821,234.768,-12.7834,2.45541,-0.00351658,0.0482165
68,-294.947,234.881,-12.7905,2.45583,-0.00360787,0.0482696
69,-295.087,235.012,-12.7918,2.45531,-0.00384621,0.0479326
70,-295.222,235.127,-12.7944,2.45542,-0.00405215,0.0485704
71,-295.343,235.234,-12.7959,2.45544,-0.00378842,0.0491884
72,-295.483,235.36,-12.79,2.45496,-0.00431382,0.0491356
73,-295.623,235.483,-12.7899,2.45419,-0.00489233,0.0489234
74,-295.752,235.588,-12.7903,2.45445,-0.00486512,0.048896
75,-295.896,235.704,-12.7962,2.45528,-0.00526307,0.0494557
76,-296.012,235.809,-12.7986,2.45464,-0.00506963,0.0491136
77,-296.158,235.926,-12.7938,2.45402,-0.00436592,0.0476391
78,-296.297,236.044,-12.7849,2.45411,-0.00461546,0.0453188
79,-296.443,236.173,-12.7962,2.45538,-0.00495376,0.0447523
80,-296.587,236.301,-12.8012,2.45545,-0.00319484,0.0445496
81,-296.733,236.423,-12.8041,2.45518,-0.00147733,0.0447233
82,-296.866,236.539,-12.7933,2.45548,-0.000796191,0.0460593
83,-297.006,236.669,-12.7857,2.45551,-0.00100827,0.0463874
84,-297.149,236.793,-12.7848,2.45493,-0.00113083,0.0460748
85,-297.284,236.903,-12.7888,2.45481,-0.000463937,0.0456578
86,-297.432,237.032,-12.7958,2.45434,0.00083265,0.045443
87,-297.567,237.148,-12.79,2.4544,0.000870789,0.044923
88,-297.729,237.291,-12.7907,2.45504,-0.000777346,0.0451219
89,-297.864,237.404,-12.7976,2.45595,-0.00106641,0.0457359
90,-298.004,237.533,-12.793,2.4558,-0.00124053,0.0454607
91,-298.155,237.671,-12.8001,2.45575,-0.0021204,0.0445746
92,-298.286,237.791,-12.8052,2.45639,-0.0022458,0.0442003
93,-298.421,237.905,-12.8099,2.45696,-0.00245503,0.0437313
94,-298.582,238.044,-12.8147,2.45666,-0.00289919,0.0426288
95,-298.723,238.178,-12.8131,2.45624,-0.0037418,0.0413785
96,-298.878,238.312,-12.8054,2.45658,-0.00540207,0.0400878
97,-299.029,238.436,-12.8068,2.45718,-0.00703943,0.0390513
98,-299.181,238.577,-12.8104,2.45834,-0.00895076,0.0375009
99,-299.32,238.697,-12.8207,2.45934,-0.00898669,0.0368036
100,-299.47,238.818,-12.8329,2.45942,-0.00733251,0.0356272
101,-299.625,238.955,-12.8383,2.4599,-0.00610187,0.0350148
102,-299.763,239.073,-12.8465,2.46026,-0.00535175,0.0373955
103,-299.913,239.183,-12.8406,2.46031,-0.00490041,0.0399081
104,-300.071,239.321,-12.8294,2.461,-0.00508949,0.0382152
105,-300.221,239.445,-12.8339,2.46159,-0.00549924,0.036136
106,-300.365,239.575,-12.8424,2.46212,-0.00505472,0.0343406
107,-300.527,239.721,-12.8435,2.46253,-0.00409375,0.0328618
108,-300.669,239.835,-12.8466,2.46331,-0.00356964,0.0321025
109,-300.825,239.965,-12.8425,2.46427,-0.00365922,0.031002
110,-300.982,240.101,-12.8465,2.46438,-0.00380064,0.030431
111,-301.134,240.234,-12.8455,2.46466,-0.00405887,0.0297932
112,-301.29,240.364,-12.8478,2.46457,-0.00375345,0.0286629
113,-301.452,240.496,-12.8505,2.46474,-0.00243157,0.0267049
114,-301.623,240.628,-12.8457,2.46759,-0.00229819,0.0233643
115,-301.777,240.767,-12.8471,2.46982,-0.00498454,0.0219152
116,-301.934,240.896,-12.8443,2.47194,-0.00581488,0.0196628
117,-302.111,241.019,-12.8552,2.47457,-0.00603214,0.0182539
118,-302.273,241.143,-12.8563,2.47649,-0.0057476,0.0193216
119,-302.437,241.26,-12.8606,2.47947,-0.00520088,0.0184545
120,-302.604,241.387,-12.8691,2.48203,-0.00470058,0.0183504
121,-302.773,241.526,-12.866,2.48364,-0.00454682,0.018338
122,-302.94,241.662,-12.8617,2.48585,-0.00472612,0.0178749
123,-303.11,241.792,-12.8637,2.48834,-0.00485547,0.017261
124,-303.285,241.921,-12.8599,2.49162,-0.00437414,0.0160917
125,-303.443,242.034,-12.8633,2.49462,-0.00460281,0.0151598
126,-303.617,242.163,-12.8639,2.49777,-0.0049337,0.0143263
127,-303.79,242.277,-12.8668,2.50088,-0.00487844,0.0135451
128,-303.971,242.402,-12.8673,2.50495,-0.0042722,0.0127317
129,-304.144,242.523,-12.8694,2.51045,-0.00411022,0.0113602
130,-304.317,242.643,-12.8695,2.51518,-0.00410794,0.0111869
131,-304.492,242.753,-12.8749,2.51978,-0.00438921,0.0126196
132,-304.679,242.872,-12.8742,2.52607,-0.00652338,0.0155451
133,-304.867,242.984,-12.8619,2.53383,-0.00858592,0.0168286
134,-305.058,243.089,-12.8526,2.54364,-0.0105031,0.0150805
135,-305.243,243.196,-12.855,2.5538,-0.0113253,0.0112369
136,-305.435,243.279,-12.8646,2.56484,-0.0118029,0.00852733
137,-305.63,243.365,-12.8736,2.5763,-0.0114408,0.00794155
138,-305.83,243.45,-12.8758,2.58787,-0.011527,0.00824472
139,-306.027,243.534,-12.87,2.59969,-0.0117501,0.00807727
140,-306.224,243.609,-12.8723,2.61182,-0.0117889,0.00801618
141,-306.435,243.677,-12.8707,2.62506,-0.012733,0.00822543
142,-306.632,243.746,-12.8639,2.63751,-0.012882,0.00708006
143,-306.834,243.82,-12.8625,2.65202,-0.0127162,0.00439745
144,-307.041,243.902,-12.8719,2.66762,-0.0138528,0.00264923
145,-307.245,243.96,-12.8723,2.68216,-0.0140807,0.00429999
146,-307.449,244.012,-12.8721,2.69698,-0.0134556,0.00550775
147,-307.652,244.06,-12.876,2.71282,-0.0132492,0.00672365
148,-307.87,244.109,-12.8695,2.73023,-0.0132255,0.00783855
149,-308.088,244.142,-12.8602,2.74834,-0.0122294,0.00774648
150,-308.316,244.183,-12.8624,2.76733,-0.0112993,0.00625143
151,-308.544,244.211,-12.8675,2.78818,-0.0108523,0.0052033
152,-308.764,244.233,-12.8709,2.80917,-0.010849,0.00371037
153,-308.985,244.243,-12.8753,2.83019,-0.0109582,0.00268873
154,-309.216,244.257,-12.8791,2.85289,-0.0105321,0.00292413
155,-309.454,244.252,-12.8809,2.87647,-0.00986739,0.00379661
156,-309.681,244.241,-12.8768,2.89984,-0.00856454,0.00292506
157,-309.906,244.244,-12.8725,2.92298,-0.00702411,0.00104729
158,-310.142,244.212,-12.8724,2.94805,-0.00628164,-0.000774146
159,-310.373,244.181,-12.8741,2.97212,-0.00603998,-0.00118266
160,-310.607,244.132,-12.8714,2.99778,-0.0058671,-0.00105214
161,-310.833,244.086,-12.8796,3.02321,-0.00553843,0.00015312
162,-311.061,244.037,-12.8826,3.048,-0.00553818,0.0011963
163,-311.293,243.983,-12.8838,3.07338,-0.0052175,0.00231689
164,-311.53,243.924,-12.8817,3.09925,-0.00559256,0.00367154
165,-311.767,243.849,-12.8776,3.12574,-0.00601776,0.00411329
166,-312.001,243.773,-12.8833,-3.13069,-0.00570252,0.00456214
167,-312.239,243.692,-12.8829,-3.1039,-0.00431973,0.00482272
168,-312.464,243.594,-12.8881,-3.07709,-0.00371174,0.0050465
169,-312.697,243.501,-12.8869,-3.05021,-0.00419768,0.00566153
170,-312.944,243.39,-12.8963,-3.02213,-0.0045851,0.00638859
171,-313.154,243.299,-12.8981,-2.9956,-0.00404051,0.00711593
172,-313.415,243.159,-12.9132,-2.96547,-0.00334165,0.00868575
173,-313.648,243.033,-12.9095,-2.93718,-0.0010867,0.0101944
174,-313.868,242.916,-12.9172,-2.90964,0.00146871,0.0100892
175,-314.108,242.761,-12.9273,-2.87967,0.0012075,0.0112245
176,-314.349,242.606,-12.9354,-2.85069,-0.000976828,0.0131243
177,-314.587,242.444,-12.9353,-2.82278,-0.00289243,0.0131405
178,-314.815,242.276,-12.9372,-2.79398,-0.00462534,0.0102372
179,-315.062,242.096,-12.9445,-2.76468,-0.00617737,0.0102733
180,-315.298,241.907,-12.9525,-2.73633,-0.00535776,0.0136395
181,-315.555,241.713,-12.9486,-2.70828,-0.00476334,0.0163134
182,-315.807,241.514,-12.9526,-2.6802,-0.00339541,0.0171727
183,-316.044,241.305,-12.949,-2.65354,-0.00184614,0.0165141
184,-316.292,241.084,-12.9429,-2.62659,-0.000906738,0.0148433
185,-316.547,240.855,-12.9511,-2.60115,0.000570695,0.0131714
186,-316.795,240.624,-12.9404,-2.57752,0.00149343,0.00955092
187,-317.028,240.421,-12.9519,-2.55701,0.00373936,0.00441858
188,-317.277,240.188,-12.9752,-2.53717,0.0053788,0.00123249
189,-317.516,239.964,-12.991,-2.51833,0.00544163,0.00264669
190,-317.745,239.714,-12.9886,-2.50072,0.0039071,0.00663152
191,-317.986,239.473,-13.0013,-2.48466,0.00126099,0.00958737
192,-318.221,239.25,-12.9885,-2.46785,-0.000849468,0.0109395
193,-318.446,239.002,-12.9937,-2.45075,-0.00131887,0.0128866
194,-318.653,238.753,-12.9938,-2.43438,-0.000136166,0.0133897
195,-318.878,238.499,-12.9983,-2.41696,-0.000357764,0.0118816
196,-319.101,238.254,-13.0079,-2.40036,-0.0014026,0.0109748
197,-319.328,237.986,-13.0123,-2.38502,-0.00368484,0.0100314
198,-319.557,237.722,-13.0209,-2.37023,-0.00536186,0.0101066
199,-319.803,237.456,-13.0375,-2.35647,-0.00933648,0.0112094
200,-320.05,237.17,-13.0318,-2.34402,-0.0139777,0.011973
201,-320.284,236.865,-13.0311,-2.33259,-0.0200293,0.0110185
