id,x,y,z,yaw,pitch,roll
1,-285.363,226.537,-12.5996,2.44814,0.0126387,0.0382238
2,-285.134,226.34,-12.6009,2.44793,0.0130641,0.0410441
3,-284.896,226.125,-12.6009,2.44787,0.0145909,0.0423507
4,-285.58,226.744,-12.6071,2.44873,0.012098,0.0338787
5,-285.793,226.941,-12.6121,2.44993,0.0110841,0.0315748
6,-285.996,227.129,-12.6175,2.45048,0.0110662,0.0314856
7,-286.224,227.328,-12.6141,2.44971,0.0103766,0.0320134
8,-286.438,227.51,-12.6133,2.45037,0.00956344,0.0327591
9,-286.646,227.689,-12.6177,2.45104,0.00793975,0.0339971
10,-286.855,227.876,-12.6143,2.45112,0.00700057,0.0333297
11,-287.055,228.046,-12.5979,2.45139,0.0028224,0.0335334
12,-287.25,228.213,-12.5985,2.45099,-0.00187403,0.0358595
13,-287.445,228.374,-12.6187,2.4508,-0.00387085,0.0381247
14,-287.631,228.532,-12.6298,2.45051,-0.00299873,0.0388205
15,-287.818,228.69,-12.6423,2.45095,-0.00162316,0.0398006
16,-287.994,228.844,-12.6343,2.45111,-0.000441695,0.0400455
17,-288.175,229.005,-12.6473,2.45151,-0.000546871,0.0407661
18,-288.353,229.145,-12.6643,2.45202,0.00172401,0.0411729
19,-288.514,229.288,-12.6721,2.45274,0.00525853,0.0405317
20,-288.675,229.428,-12.6637,2.45311,0.00665886,0.0376163
21,-288.843,229.571,-12.6559,2.45351,0.00636401,0.0351916
22,-289,229.709,-12.6624,2.45452,0.0058665,0.0347381
23,-289.144,229.832,-12.6711,2.45427,0.00675947,0.0368806
24,-289.284,229.986,-12.6782,2.45403,0.00994236,0.0378869
25,-289.472,230.089,-12.6937,2.45474,0.012361,0.041499
26,-289.596,230.247,-12.6815,2.45599,0.0141363,0.0422831
27,-289.738,230.369,-12.6779,2.45636,0.0143955,0.0440629
28,-289.917,230.472,-12.6867,2.45595,0.0135439,0.0452284
29,-290.06,230.593,-12.6784,2.45682,0.0117778,0.0445794
30,-290.195,230.708,-12.6891,2.45834,0.00940919,0.0446393
31,-290.331,230.825,-12.6784,2.45837,0.00848745,0.0432122
32,-290.463,230.949,-12.662,2.45875,0.00566131,0.0412005
33,-290.582,231.06,-12.6734,2.45742,0.00178269,0.0422848
34,-290.725,231.179,-12.6653,2.45719,-0.0007163,0.0422559
35,-290.84,231.298,-12.619,2.45704,-0.00669606,0.0402057
36,-290.968,231.431,-12.6273,2.45619,-0.0152673,0.0402734
37,-291.104,231.542,-12.6673,2.45669,-0.0154578,0.0404559
38,-291.227,231.636,-12.72,2.45651,-0.00915687,0.0412594
39,-291.344,231.739,-12.7284,2.45824,0.000270643,0.0405395
40,-291.466,231.833,-12.7172,2.45828,0.00534938,0.0415801
41,-291.589,231.942,-12.6986,2.45795,0.00268099,0.0432787
42,-291.713,232.062,-12.717,2.45684,-0.000799189,0.0473232
43,-291.847,232.157,-12.7373,2.45572,-0.000663348,0.0527463
44,-291.976,232.263,-12.7445,2.45493,0.00132143,0.0566417
45,-292.096,232.368,-12.7357,2.45537,0.00407233,0.0553772
46,-292.204,232.467,-12.7317,2.45603,0.00679904,0.0506737
47,-292.312,232.566,-12.7261,2.45726,0.0075407,0.0454678
48,-292.428,232.667,-12.7285,2.45741,0.005922,0.0455469
49,-292.54,232.77,-12.741,2.45575,0.00434758,0.0476049
50,-292.654,232.852,-12.7582,2.45523,0.00489534,0.0488458
51,-292.772,232.964,-12.751,2.4559,0.00604043,0.0503681
52,-292.883,233.061,-12.7485,2.45515,0.00602881,0.0505327
53,-293.014,233.177,-12.7494,2.45448,0.00687672,0.0487598
54,-293.143,233.286,-12.7599,2.45608,0.0104295,0.0481053
55,-293.258,233.397,-12.7489,2.45691,0.0116907,0.048208
56,-293.392,233.514,-12.7115,2.45666,0.00848643,0.0449904
57,-293.535,233.644,-12.7204,2.45515,7.35216e-05,0.0424755
58,-293.671,233.749,-12.7546,2.45521,-0.00246506,0.0421445
59,-293.797,233.855,-12.7596,2.45743,-0.00116983,0.0437188
60,-293.925,233.965,-12.7535,2.45816,-0.0022204,0.0470241
61,-294.053,234.077,-12.743,2.45768,-0.00443662,0.0484782
62,-294.189,234.205,-12.7682,2.45632,-0.0062704,0.0499027
63,-294.316,234.312,-12.773,2.45535,-0.00580024,0.0507478
64,-294.447,234.419,-12.7725,2.45603,-0.00535867,0.0520744
65,-294.572,234.541,-12.7815,2.45507,-0.00497651,0.0520447
66,-294.703,234.658,-12.7785,2.45433,-0.00333657,0.0497697
67,-294.821,234.769,-12.7832,2.4554,-0.00352533,0.0482113
68,-294.958,234.894,-12.7911,2.45588,-0.00365483,0.0481543
69,-295.091,235.018,-12.7913,2.45528,-0.00387078,0.0478766
70,-295.225,235.13,-12.7941,2.45545,-0.00413078,0.0485441
71,-295.357,235.25,-12.7951,2.4554,-0.00385178,0.049155
72,-295.49,235.366,-12.7896,2.45493,-0.00438746,0.0491157
73,-295.624,235.484,-12.7898,2.45418,-0.00490864,0.0489195
74,-295.756,235.592,-12.79,2.45445,-0.00487385,0.0488475
75,-295.896,235.705,-12.7965,2.45528,-0.00528187,0.0494567
76,-296.019,235.815,-12.7989,2.45463,-0.00506934,0.04904
77,-296.161,235.928,-12.7933,2.45395,-0.00436295,0.0475126
78,-296.303,236.05,-12.7847,2.45403,-0.00468199,0.0451477
79,-296.447,236.177,-12.7962,2.45533,-0.00504498,0.0447128
80,-296.591,236.306,-12.8016,2.45538,-0.00316501,0.0444915
81,-296.741,236.429,-12.8033,2.45516,-0.00149211,0.0446072
82,-296.879,236.549,-12.7915,2.45547,-0.000783263,0.0459847
83,-297.011,236.672,-12.7867,2.45551,-0.00112627,0.0464279
84,-297.158,236.796,-12.785,2.45493,-0.00122688,0.0461234
85,-297.294,236.914,-12.7893,2.45472,-0.000509788,0.045648
86,-297.436,237.036,-12.7962,2.4543,0.00083741,0.0454089
87,-297.575,237.158,-12.7907,2.45433,0.000830904,0.0448727
88,-297.731,237.293,-12.791,2.45504,-0.000889202,0.045131
89,-297.865,237.405,-12.7978,2.45595,-0.00108441,0.0457512
90,-298.013,237.539,-12.7931,2.45572,-0.0012837,0.0455076
91,-298.156,237.672,-12.8003,2.45575,-0.00213639,0.0445868
92,-298.297,237.801,-12.805,2.45634,-0.00232856,0.044139
93,-298.439,237.917,-12.81,2.45695,-0.00250723,0.0435999
94,-298.587,238.047,-12.8142,2.45661,-0.00295093,0.0425669
95,-298.731,238.187,-12.8125,2.45611,-0.00386583,0.0412732
96,-298.879,238.314,-12.8056,2.45656,-0.00544021,0.0400771
97,-299.032,238.439,-12.8071,2.45719,-0.00709259,0.0389821
98,-299.182,238.578,-12.8108,2.45835,-0.00898577,0.0375034
99,-299.324,238.702,-12.8214,2.45933,-0.00905008,0.0367862
100,-299.474,238.823,-12.8335,2.45943,-0.0073181,0.0356023
101,-299.627,238.959,-12.8383,2.45984,-0.00606845,0.0349723
102,-299.771,239.081,-12.8475,2.46023,-0.00531207,0.0375892
103,-299.922,239.191,-12.8403,2.46024,-0.00487015,0.0400674
104,-300.076,239.325,-12.8288,2.46098,-0.00517126,0.0381758
105,-300.229,239.454,-12.8338,2.46164,-0.0055735,0.0359276
106,-300.384,239.594,-12.8427,2.46196,-0.00508908,0.0339956
107,-300.528,239.723,-12.8433,2.46252,-0.00408368,0.0328469
108,-300.683,239.844,-12.8485,2.46319,-0.00367731,0.032038
109,-300.833,239.971,-12.8434,2.4642,-0.00374149,0.0309832
110,-300.984,240.103,-12.8469,2.46436,-0.00382643,0.0304212
111,-301.141,240.24,-12.8464,2.46456,-0.0041382,0.0298223
112,-301.294,240.367,-12.8481,2.4645,-0.00376464,0.0286066
113,-301.453,240.497,-12.8503,2.4647,-0.00243558,0.0266712
114,-301.615,240.62,-12.8473,2.46749,-0.00227722,0.0236783
115,-301.777,240.767,-12.8471,2.46983,-0.00499118,0.0219199
116,-301.938,240.899,-12.8446,2.47194,-0.00587808,0.01957
117,-302.114,241.022,-12.8554,2.47457,-0.00607514,0.0182368
118,-302.279,241.147,-12.8566,2.47647,-0.00576738,0.0193927
119,-302.441,241.262,-12.8604,2.47946,-0.00520142,0.0184209
120,-302.61,241.394,-12.8699,2.48201,-0.00470391,0.0183364
121,-302.781,241.532,-12.8667,2.48359,-0.0045411,0.0184118
122,-302.947,241.665,-12.8615,2.48584,-0.00469071,0.0178166
123,-303.116,241.795,-12.8637,2.48835,-0.00486486,0.0172402
124,-303.288,241.922,-12.8591,2.49162,-0.00439986,0.016057
125,-303.451,242.04,-12.8639,2.49465,-0.00470723,0.0151762
126,-303.622,242.165,-12.8636,2.49781,-0.0049444,0.0143235
127,-303.796,242.28,-12.8675,2.50089,-0.00485853,0.0135534
128,-303.973,242.404,-12.8678,2.50493,-0.00426053,0.0127471
129,-304.144,242.523,-12.8694,2.51044,-0.00410871,0.0113576
130,-304.318,242.643,-12.8696,2.51519,-0.00412177,0.0111952
131,-304.495,242.753,-12.8758,2.51984,-0.00440295,0.0126896
132,-304.672,242.87,-12.8707,2.52582,-0.00630322,0.0152725
133,-304.867,242.984,-12.8618,2.53385,-0.00859902,0.0168209
134,-305.059,243.089,-12.8526,2.54365,-0.010527,0.0150682
135,-305.243,243.196,-12.8551,2.5538,-0.0113293,0.0112397
136,-305.435,243.279,-12.8647,2.56484,-0.0118053,0.00853043
137,-305.63,243.365,-12.8735,2.57626,-0.0114327,0.00793269
138,-305.83,243.449,-12.8758,2.58787,-0.011522,0.00824623
139,-306.027,243.533,-12.87,2.59969,-0.0117488,0.00807454
140,-306.231,243.608,-12.8726,2.61235,-0.0119199,0.00812382
141,-306.436,243.677,-12.8706,2.62503,-0.0127258,0.00821983
142,-306.632,243.746,-12.8639,2.63751,-0.0128777,0.00708491
143,-306.835,243.82,-12.8624,2.65204,-0.0127161,0.00439753
144,-307.041,243.902,-12.8718,2.6677,-0.0139373,0.00265293
145,-307.246,243.96,-12.8724,2.68216,-0.0140825,0.0043075
146,-307.449,244.012,-12.8722,2.69697,-0.0134775,0.00550761
147,-307.653,244.059,-12.8761,2.71282,-0.0132492,0.00672273
148,-307.871,244.109,-12.8696,2.73023,-0.0132229,0.00784299
149,-308.087,244.142,-12.8602,2.74831,-0.0122326,0.00773698
150,-308.316,244.183,-12.8624,2.76733,-0.0112983,0.00625196
151,-308.544,244.211,-12.8676,2.78818,-0.0108564,0.0052211
152,-308.765,244.232,-12.8709,2.80917,-0.0108479,0.00371064
153,-308.985,244.242,-12.8753,2.83019,-0.0109598,0.0026938
154,-309.213,244.261,-12.8787,2.85256,-0.0105476,0.0028653
155,-309.454,244.252,-12.8811,2.87647,-0.00986849,0.00380602
156,-309.681,244.241,-12.8769,2.89985,-0.00856567,0.00292466
157,-309.905,244.244,-12.8724,2.92298,-0.00701749,0.00104775
158,-310.142,244.211,-12.8724,2.94805,-0.00628655,-0.000772989
159,-310.373,244.181,-12.874,2.97211,-0.0060366,-0.00118252
160,-310.608,244.133,-12.8714,2.99778,-0.00586544,-0.00104963
161,-310.833,244.086,-12.8796,3.02323,-0.00553825,0.000161405
162,-311.061,244.037,-12.8826,3.048,-0.00554417,0.00119403
163,-311.294,243.982,-12.8839,3.07339,-0.00521994,0.00231575
164,-311.531,243.924,-12.8816,3.09925,-0.00559789,0.0036763
165,-311.767,243.848,-12.8774,3.12577,-0.00603942,0.00413989
166,-312.001,243.773,-12.8835,-3.13069,-0.00570387,0.00455737
167,-312.239,243.693,-12.8828,-3.1039,-0.00432535,0.00482047
168,-312.464,243.594,-12.8882,-3.07708,-0.00371498,0.00505414
169,-312.698,243.501,-12.8872,-3.05018,-0.00419992,0.00565453
170,-312.944,243.391,-12.8963,-3.0222,-0.00455429,0.00636433
171,-313.182,243.27,-12.9038,-2.99387,-0.00433973,0.00751278
172,-313.415,243.159,-12.9133,-2.96546,-0.00333525,0.00868016
173,-313.649,243.033,-12.9094,-2.93714,-0.00110663,0.0102049
174,-313.871,242.904,-12.9173,-2.90901,0.00130948,0.0102744
175,-314.101,242.777,-12.9237,-2.88059,0.00158583,0.0111364
176,-314.349,242.606,-12.9356,-2.85067,-0.000986931,0.0131338
177,-314.589,242.443,-12.9355,-2.8227,-0.00295107,0.0131173
178,-314.816,242.275,-12.9374,-2.79394,-0.00464214,0.0102495
179,-315.062,242.096,-12.9445,-2.76468,-0.00617954,0.0102778
180,-315.292,241.917,-12.9509,-2.73683,-0.00519252,0.0135789
181,-315.555,241.713,-12.9485,-2.70828,-0.00476522,0.0163167
182,-315.808,241.512,-12.9525,-2.68013,-0.00342839,0.0171645
183,-316.043,241.305,-12.9491,-2.65354,-0.0018474,0.016518
184,-316.292,241.083,-12.943,-2.62654,-0.00091715,0.0148513
185,-316.547,240.855,-12.951,-2.60115,0.000566208,0.0131717
186,-316.796,240.624,-12.9404,-2.57752,0.001493,0.00954343
187,-317.032,240.414,-12.9523,-2.5567,0.00358092,0.00446197
188,-317.277,240.187,-12.9754,-2.53715,0.00537853,0.00124362
189,-317.509,239.976,-12.9876,-2.51891,0.0057237,0.00240002
190,-317.745,239.714,-12.9884,-2.50071,0.0039149,0.00662257
191,-317.986,239.473,-13.0012,-2.48467,0.00125881,0.00959361
192,-318.22,239.251,-12.9887,-2.46791,-0.000774444,0.0109062
193,-318.446,239.001,-12.9939,-2.45071,-0.00135332,0.0128947
194,-318.653,238.753,-12.9938,-2.43438,-0.000142696,0.0133908
195,-318.877,238.498,-12.9982,-2.41693,-0.000380072,0.0118799
196,-319.101,238.255,-13.0078,-2.4004,-0.0013771,0.0109865
197,-319.329,237.986,-13.0124,-2.38502,-0.00368653,0.0100353
198,-319.558,237.724,-13.021,-2.37031,-0.00532753,0.0101075
199,-319.803,237.457,-13.0375,-2.35649,-0.00931951,0.0112148
200,-320.05,237.169,-13.0319,-2.34399,-0.0140096,0.0119758
201,-320.285,236.866,-13.0308,-2.33262,-0.0200158,0.011015
