id,x,y,z,yaw,pitch,roll
1,1773.52,866.381,0,0.0190624,-0.0103073,-0.0335608
2,1773.23,866.385,0,0.0188377,-0.00655902,-0.02928
3,1772.93,866.383,0,0.0195656,-0.004288,-0.0279493
4,1772.3,866.385,0,0.0190947,-0.00465473,-0.0274445
5,1773.67,866.426,0,0.019902,-0.0040033,-0.0227089
6,1774.11,866.413,0,0.0190809,-0.00643055,-0.0268943
7,1774.56,866.4,0,0.0194908,-0.0116485,-0.0289696
8,1774.95,866.482,0,0.0193051,-0.0126795,-0.0169462
9,1775.18,866.392,0,0.0213385,-0.0149886,-0.0164528
10,1775.65,866.335,0,0.0213857,-0.0139051,-0.0275575
11,1776.15,866.343,0,0.0206073,-0.0150707,-0.0258701
12,1776.49,866.339,0,0.0207283,-0.0151144,-0.0241743
13,1776.76,866.353,0,0.0207194,-0.015062,-0.0238224
14,1777.03,866.389,0,0.0217041,-0.0130576,-0.0236388
15,1777.54,866.359,0,0.0220026,-0.0140193,-0.0262251
16,1778.16,866.417,0,0.0211376,-0.0119265,-0.0188805
17,1778.55,866.433,0,0.0206093,-0.0128156,-0.0196005
18,1778.95,866.377,0,0.0221417,-0.00773551,-0.0242111
19,1779.46,866.432,0,0.0209031,-0.00842052,-0.0275683
20,1779.87,866.384,0,0.0232133,-0.010005,-0.0255928
21,1780.26,866.431,0,0.0222308,-0.0107562,-0.030408
22,1780.56,866.409,0,0.0222805,-0.0118343,-0.0293879
23,1781.19,866.416,0,0.0228021,-0.0125618,-0.0287808
24,1781.48,866.482,0,0.0211611,-0.0119815,-0.0292117
25,1781.92,866.495,0,0.0216398,-0.00960573,-0.0256626
26,1782.32,866.47,0,0.022966,-0.00933199,-0.0240604
27,1782.78,866.505,0,0.0225762,-0.00686351,-0.0208296
28,1783.26,866.562,0,0.0222646,-0.00724056,-0.0142674
29,1783.45,866.592,0,0.0230752,-0.00637259,-0.0109003
30,1783.56,866.6,0,0.0226417,-0.00729626,-0.0101343
31,1784.49,866.546,0,0.0238219,-0.00603689,-0.0146142
32,1784.74,866.462,0,0.0253714,-0.00618911,-0.0232316
33,1785.36,866.499,0,0.0237452,-0.00342425,-0.027775
34,1785.88,866.462,0,0.024545,-0.00681186,-0.0339674
35,1785.9,866.468,0,0.0242837,-0.00642071,-0.032112
36,1786.54,866.485,0,0.0238625,-0.00724799,-0.0354022
37,1786.81,866.5,0,0.024024,-0.00815237,-0.0336284
38,1787.47,866.461,0,0.0256208,-0.00551336,-0.0333558
39,1787.74,866.513,0,0.0266639,-0.00461082,-0.0294281
40,1788.27,866.536,0,0.026675,-0.0039923,-0.0297865
41,1788.5,866.485,0,0.0275704,-0.000513825,-0.0342533
42,1788.89,866.476,0,0.028062,0.00274331,-0.0352652
43,1789.39,866.407,0,0.0294985,0.00361283,-0.0403506
44,1790,866.491,0,0.0280081,0.00149409,-0.0461258
45,1790.39,866.581,0,0.0267661,-0.00560831,-0.038653
46,1790.9,866.603,0,0.0275901,-0.00648123,-0.0362592
47,1791.27,866.618,0,0.0272961,-0.00707748,-0.0340825
48,1791.79,866.661,0,0.0290333,-0.00604427,-0.0334262
49,1792.31,866.746,0,0.0319824,-0.00639261,-0.0319033
50,1792.92,866.768,0,0.0318205,-0.00868557,-0.0337755
51,1793.28,866.73,0,0.0332865,-0.00410361,-0.0397098
52,1793.63,866.726,0,0.0342123,-0.00519832,-0.0396112
53,1794.08,866.669,0,0.0339966,-0.00879438,-0.0391408
54,1794.46,866.685,0,0.0333468,-0.00595142,-0.0427175
55,1795.07,866.672,0,0.0349746,-0.00546854,-0.039458
56,1795.55,866.701,0,0.0348978,-0.00732735,-0.0395707
57,1796.12,866.599,0,0.0344605,-0.00850852,-0.043874
58,1796.37,866.586,0,0.0373826,-0.00427616,-0.0564833
59,1796.79,866.485,0,0.0376971,-0.00440557,-0.0571644
60,1797.17,866.569,0,0.0385224,-0.00535786,-0.0573876
61,1797.57,866.55,0,0.0386706,-0.00686519,-0.0559662
62,1798.19,866.614,0,0.039974,-0.00716494,-0.053741
63,1798.55,866.585,0,0.040377,-0.0071798,-0.0486537
64,1798.98,866.471,0,0.0407954,-0.00586873,-0.0548323
65,1799.18,866.524,0,0.0398213,-0.00775354,-0.0495492
66,1799.85,866.504,0,0.0408188,-0.00729246,-0.0549234
67,1800.22,866.483,0,0.0405339,-0.00919651,-0.0546064
68,1800.5,866.522,0,0.0407923,-0.00629817,-0.0532044
69,1800.86,866.545,0,0.0408153,-0.00679708,-0.0514967
70,1801.23,866.605,0,0.0417776,-0.00733622,-0.0505255
71,1801.6,866.654,0,0.0412552,-0.00460762,-0.0455009
72,1802.06,866.695,0,0.0419443,-0.00363412,-0.036676
73,1802.34,866.741,0,0.0426709,-0.000636047,-0.0299379
74,1802.89,866.79,0,0.0433366,0.00137279,-0.0208246
75,1803.23,866.884,0,0.0409611,0.00042883,-0.010614
76,1803.71,866.841,0,0.0434817,-0.00121618,-0.00733092
77,1804.23,866.833,0,0.0415489,0.00107336,-0.0076208
78,1804.67,866.908,0,0.0410149,0.00118676,-0.00699148
79,1805.15,866.903,0,0.0408353,0.00137427,-0.00752717
80,1805.58,866.941,0,0.0410947,0.000224873,-0.00559744
81,1805.78,866.97,0,0.0412252,0.000461482,-0.00633126
82,1805.91,866.983,0,0.0423597,-0.000227402,-0.00562982
83,1806.48,866.98,0,0.0420508,-0.000699507,-0.00847126
84,1806.95,867.064,0,0.0415949,-0.00256217,-0.0014437
85,1807.13,867.066,0,0.0420438,-0.00389965,-0.00149365
86,1808.05,867.108,0,0.0428485,-0.002775,-0.00423698
87,1808.43,867.138,0,0.042605,-0.00399881,-0.00235494
88,1808.89,867.164,0,0.0424705,-0.00376554,-0.00296175
89,1809.11,867.205,0,0.0414516,-0.00396968,-0.0010226
90,1809.41,867.201,0,0.0424134,-0.00257286,0.000430403
91,1809.86,867.196,0,0.0436089,-0.0025814,0.000878541
92,1810.09,867.241,0,0.0438949,-0.00183006,-0.000913575
93,1811.1,867.197,0,0.0454947,0.00354715,-0.0132265
94,1811.52,867.218,0,0.0461392,0.00262666,-0.0163811
95,1811.92,867.185,0,0.0461788,0.0037744,-0.0197739
96,1812.47,867.167,0,0.0459384,0.000784105,-0.0263953
97,1812.54,867.243,0,0.0466641,0.00480659,-0.0230783
98,1812.66,867.293,0,0.0470004,0.00350017,-0.0193271
99,1812.99,867.366,0,0.0482612,0.00506766,-0.0120972
100,1813.51,867.354,0,0.0491104,0.00640044,-0.0124267
101,1814.08,867.388,0,0.0492806,0.00619753,-0.014178
102,1814.61,867.431,0,0.050137,0.0114998,-0.00904434
103,1815.03,867.43,0,0.0503414,0.0117484,-0.00987487
104,1815.5,867.449,0,0.0492676,0.0132346,-0.00333297
105,1815.72,867.486,0,0.0485139,0.0121848,-0.00150553
106,1816.11,867.488,0,0.048237,0.0126198,-0.00237933
107,1816.58,867.495,0,0.0466903,0.0116533,-0.00418355
108,1816.73,867.512,0,0.04706,0.0112826,-0.0044381
109,1819.06,867.376,0,0.0470013,0.00626299,-0.0312522
110,1819.37,867.425,0,0.0475049,0.00487608,-0.0288781
111,1819.23,867.35,0,0.0486155,0.00641875,-0.0281455
112,1819.22,867.322,0,0.0482902,0.00620718,-0.0301923
113,1820.03,867.309,0,0.0468171,0.0015184,-0.0383852
114,1820.27,867.323,0,0.0463907,9.73188e-05,-0.0357833
115,1820.57,867.238,0,0.0445176,-0.000101816,-0.0406597
116,1820.93,867.244,0,0.0445084,0.00172541,-0.0431511
117,1821.52,867.265,0,0.044128,0.00194872,-0.0440247
118,1821.82,867.306,0,0.0450573,0.00109805,-0.0415469
119,1822.3,867.325,0,0.0408779,0.00344881,-0.0359119
120,1822.68,867.325,0,0.0420259,0.00348505,-0.0362147
121,1822.98,867.318,0,0.0419361,0.0026742,-0.0379728
122,1823.43,867.43,0,0.0397658,0.00646022,-0.0318952
123,1823.89,867.539,0,0.0381951,0.00138036,-0.021445
124,1824.26,867.597,0,0.0375066,0.00235814,-0.0165498
125,1824.59,867.618,0,0.0352409,0.00185907,-0.0147713
126,1825.09,867.668,0,0.0338992,0.00169675,-0.00662105
127,1825.56,867.681,0,0.0310509,0.00212373,-0.00527463
128,1825.76,867.678,0,0.0309794,0.00441313,-0.00421423
129,1826.31,867.618,0,0.0305913,0.00574421,-0.0129648
130,1826.64,867.593,0,0.0312811,0.00319967,-0.0173793
131,1826.95,867.627,0,0.0290082,0.00376448,-0.0141844
132,1827.67,867.503,0,0.0231521,0.00105783,-0.0117614
133,1828.03,867.528,0,0.0232618,0.000165366,-0.0101169
134,1828.4,867.415,0,0.0255767,-0.00280951,-0.0236417
135,1828.84,867.437,0,0.0248416,-0.00459156,-0.0257093
136,1829.3,867.405,0,0.0235546,-0.00671619,-0.0303726
137,1829.52,867.461,0,0.0260791,-0.0057605,-0.0294056
138,1830.02,867.475,0,0.0239856,-0.00576134,-0.0272483
139,1830.31,867.522,0,0.0259416,-0.00745479,-0.0291504
140,1830.79,867.534,0,0.0247862,-0.0092554,-0.0301287
141,1831.04,867.571,0,0.0256599,-0.00880545,-0.0311642
142,1831.61,867.497,0,0.0217984,-0.00944075,-0.0305252
143,1832.05,867.445,0,0.0215088,-0.007364,-0.0302555
144,1832.47,867.486,0,0.0199123,-0.00650768,-0.0301302
145,1832.74,867.366,0,0.0142717,-0.00690453,-0.0349015
146,1833.23,867.391,0,0.0151283,-0.00415539,-0.026226
147,1833.59,867.414,0,0.0137466,-0.000399112,-0.0193441
148,1833.94,867.438,0,0.0125872,0.00652654,-0.0181041
149,1834.15,867.601,0,0.011603,0.0123345,-0.00622191
150,1834.53,867.658,0,0.0131462,0.0161482,0.0041321
151,1835.05,867.72,0,0.0166627,0.013903,-0.00384619
152,1835.6,867.786,0,0.0151269,0.0100892,-0.00532898
153,1835.8,867.73,0,0.0149987,-0.00292151,-0.0185311
154,1836.28,867.748,0,0.0134907,-0.00708906,-0.0216851
155,1836.59,867.768,0,0.0137399,-0.0164607,-0.0195205
156,1837.09,867.802,0,0.0145265,-0.0216539,-0.0127571
157,1837.65,867.66,0,0.0136408,-0.0259632,-0.032533
158,1837.84,867.707,0,0.012612,-0.0191438,-0.0264606
159,1838.39,867.766,0,0.0142811,-0.0105634,-0.0297128
160,1838.67,867.814,0,0.0122444,-0.00572804,-0.0195566
161,1839.18,867.781,0,0.0155596,-0.00319039,-0.0376989
162,1839.56,867.797,0,0.0140372,-0.00160705,-0.0275808
163,1839.91,867.799,0,0.0130082,-0.00225636,-0.0224854
164,1840.28,867.782,0,0.0108462,-0.00548026,-0.0229976
165,1840.72,867.822,0,0.0124268,-0.0052244,-0.0228435
166,1841.22,867.893,0,0.0162478,-0.003507,-0.0357652
167,1841.76,867.759,0,0.0164297,-0.00458604,-0.0457915
168,1842.15,867.822,0,0.0168149,-0.00476069,-0.0418832
169,1842.58,867.809,0,0.0188369,-0.00468923,-0.0454732
170,1842.83,867.786,0,0.0157525,-0.00708331,-0.044308
171,1843.25,867.93,0,0.0172011,-0.00812369,-0.0307576
172,1843.76,867.913,0,0.0171823,-0.00984375,-0.0305884
173,1844.15,867.873,0,0.016058,-0.0111291,-0.0351169
174,1844.65,867.859,0,0.0162542,-0.0100317,-0.0369256
175,1845.03,867.771,0,0.0170722,-0.00796466,-0.0503029
176,1845.39,867.761,0,0.0167299,-0.00841078,-0.0500619
177,1845.83,867.742,0,0.0157093,-0.0103565,-0.0490315
178,1846.49,867.776,0,0.0171871,-0.00645063,-0.0494978
179,1846.79,867.788,0,0.0172469,-0.00550035,-0.0478152
180,1847.15,867.803,0,0.016098,-0.00694217,-0.0429839
181,1847.64,867.89,0,0.0161005,-0.00637543,-0.0344987
182,1848.04,867.893,0,0.0142782,-0.00691511,-0.0354785
183,1848.28,867.843,0,0.0131614,-0.00885883,-0.0273447
184,1848.89,867.845,0,0.0142126,-0.00848137,-0.0272553
185,1849.25,867.787,0,0.0139079,-0.00652724,-0.0275935
186,1849.73,867.728,0,0.0150264,-0.00531549,-0.0342114
187,1850.26,867.823,0,0.0183487,-0.00116465,-0.0269739
188,1850.63,867.815,0,0.0182361,0.0026355,-0.0304645
189,1851.1,867.742,0,0.0185155,0.0017303,-0.034802
190,1851.53,867.878,0,0.0234139,0.0057172,-0.0270279
191,1852.02,867.932,0,0.026488,0.00463127,-0.0300865
192,1852.45,867.954,0,0.0272885,0.00773831,-0.0223442
193,1852.81,867.935,0,0.0262492,0.00998152,-0.016109
194,1853.41,867.958,0,0.0304373,0.00265011,-0.0250067
195,1853.57,867.947,0,0.0307676,0.000672652,-0.0262987
196,1854.09,867.959,0,0.0344187,0.00400692,-0.0399094
197,1854.42,867.993,0,0.034642,0.00519594,-0.0330708
198,1854.76,868.011,0,0.0357258,0.00836581,-0.0282402
199,1855.16,867.966,0,0.0363644,0.00669663,-0.0337599
200,1855.32,867.975,0,0.0357725,0.00707447,-0.0257547
201,1855.66,868.006,0,0.0366273,0.00580707,-0.0236432
202,1856.14,868.115,0,0.0405498,0.0054106,-0.0243282
203,1856.44,868.104,0,0.0395064,0.00567417,-0.0220976
204,1856.88,868.047,0,0.0427141,0.00314735,-0.0338302
205,1857.31,868.003,0,0.0430478,0.000633003,-0.0323633
206,1857.45,867.928,0,0.0417837,-0.000936384,-0.0298967
207,1857.89,867.999,0,0.0429755,-0.00519901,-0.0247559
208,1858.08,868.014,0,0.0427382,-0.00770558,-0.022752
209,1858.64,867.92,0,0.0406499,-0.00857008,-0.0165599
210,1859.08,867.858,0,0.0399421,-0.00625674,-0.0179455
211,1859.49,867.843,0,0.0419852,-0.0059395,-0.0235366
212,1859.59,867.857,0,0.0423122,-0.00559397,-0.0229059
213,1859.85,867.962,0,0.0451635,-0.00187861,-0.0167831
214,1860.19,868.273,0,0.0552898,0.00111094,-0.0202164
215,1860.91,868.311,0,0.0568134,0.0028069,-0.0216055
216,1860.99,868.222,0,0.0550636,0.00683197,-0.0275
217,1861.24,868.185,0,0.055935,0.0100229,-0.0292855
218,1861.71,868.179,0,0.0572334,0.00640345,-0.0314094
219,1861.99,868.255,0,0.0580293,0.0053858,-0.0242706
220,1862.43,868.324,0,0.0587451,0.00696062,-0.0264974
221,1862.72,868.305,0,0.0613745,0.00300901,-0.0237121
222,1862.87,868.205,0,0.0596913,0.00140116,-0.0335047
223,1863.24,868.271,0,0.0618021,-5.98422e-05,-0.0187346
224,1863.57,868.314,0,0.063722,-0.00415467,-0.025129
225,1864.06,868.345,0,0.0658365,-0.00666196,-0.0327191
226,1864.38,868.359,0,0.0667719,-0.00597365,-0.0306215
227,1864.8,868.378,0,0.0653467,-0.00687499,-0.0334292
228,1864.92,868.341,0,0.0651726,-0.00717278,-0.0356114
229,1865.33,868.411,0,0.0679339,-0.00595984,-0.0324383
230,1865.61,868.479,0,0.0694023,-0.00732723,-0.0290238
231,1865.79,868.45,0,0.0685276,-0.00653884,-0.0293474
232,1866.1,868.437,0,0.0661172,-0.00892668,-0.0200824
233,1866.3,868.418,0,0.0673846,-0.0114794,-0.0260183
234,1866.68,868.606,0,0.0713192,-0.0127535,-0.0164341
235,1867.04,868.782,0,0.0732508,-0.0189527,-0.0178928
236,1867.51,868.548,0,0.0682942,-0.019301,-0.0259727
237,1867.76,868.478,0,0.065352,-0.0209169,-0.0279455
238,1868.13,868.532,0,0.0651599,-0.0209332,-0.0292126
239,1868.55,868.546,0,0.0647673,-0.0185474,-0.0297189
240,1868.58,868.671,0,0.0647966,-0.014516,-0.0290028
241,1869.12,868.658,0,0.0617158,-0.0121445,-0.0269936
242,1869.45,868.742,0,0.0622702,-0.00739295,-0.0193647
243,1869.72,868.742,0,0.0629131,-0.00586567,-0.0175614
244,1869.99,868.821,0,0.0637718,-0.00191803,-0.0284923
245,1870.37,868.871,0,0.0634031,-0.00245325,-0.0294904
246,1870.71,868.761,0,0.0601016,-0.00374893,-0.0305893
247,1871.1,868.762,0,0.0587529,-0.00326174,-0.0319136
248,1871.34,868.842,0,0.0595241,-0.000207275,-0.0306206
249,1871.62,868.916,0,0.0603774,0.00103471,-0.030032
250,1872.02,868.869,0,0.0580523,-0.000632947,-0.0293716
251,1872.46,868.858,0,0.056423,-0.00284022,-0.0294128
252,1872.81,868.96,0,0.055888,-0.00162587,-0.0286382
253,1873.2,868.961,0,0.0553561,-0.00236465,-0.0285317
254,1873.66,868.918,0,0.0515812,-0.00522356,-0.0322732
255,1874.08,868.926,0,0.05007,-0.00960233,-0.0370153
256,1874.47,868.929,0,0.0478305,-0.0102035,-0.0353668
257,1874.89,868.903,0,0.0452426,-0.0107099,-0.0362525
258,1875.25,868.924,0,0.0433421,-0.00967823,-0.035348
259,1875.57,868.975,0,0.043164,-0.00986075,-0.035506
260,1875.97,869.01,0,0.0410032,-0.0113291,-0.036914
261,1876.37,869.006,0,0.03789,-0.0102107,-0.0357686
262,1876.79,869.044,0,0.0372756,-0.00994309,-0.0359618
263,1877.26,869.035,0,0.0357467,-0.00509366,-0.0318418
264,1877.61,869.004,0,0.0354516,-0.00620103,-0.0331756
265,1877.99,868.983,0,0.0324398,-0.00501487,-0.0298474
266,1878.52,869.025,0,0.0306948,-0.00857974,-0.0305037
267,1878.91,869.021,0,0.0299921,-0.0082003,-0.0313144
268,1879.38,868.981,0,0.028768,-0.00909953,-0.0324607
269,1879.77,868.971,0,0.0273963,-0.00986341,-0.0316335
270,1880.21,868.963,0,0.0257485,-0.00834213,-0.0314376
271,1880.61,868.958,0,0.0226423,-0.00643698,-0.0281305
272,1881.02,869.009,0,0.024366,-0.0042483,-0.0292349
273,1881.47,868.954,0,0.0220182,-0.00348875,-0.0287551
274,1881.87,868.962,0,0.0218799,-0.00123826,-0.028244
275,1882.29,868.933,0,0.0213708,-0.000997025,-0.0288591
276,1882.62,868.979,0,0.0214518,-0.00155511,-0.0269737
277,1883.2,868.89,0,0.0193392,-0.00292472,-0.0224947
278,1883.56,868.974,0,0.0195543,-0.00240265,-0.0235848
279,1884.03,868.985,0,0.0189237,-0.00222885,-0.0227318
280,1884.44,869.05,0,0.0205839,-0.00291038,-0.0233913
281,1884.86,869.056,0,0.0202302,-0.00259798,-0.0228925
282,1885.25,869.051,0,0.0202732,-0.00452243,-0.0252428
283,1885.71,869.003,0,0.0195753,-0.00293146,-0.023023
284,1886.11,869.007,0,0.0199738,-0.00015494,-0.0196539
285,1886.57,869.036,0,0.0206994,-0.000921578,-0.0179364
286,1887,869.038,0,0.0182668,-0.00207403,-0.0181979
287,1887.43,869.063,0,0.0192731,-0.00188135,-0.017458
288,1887.93,868.996,0,0.0178409,-0.00316234,-0.017435
289,1888.36,869.004,0,0.0174214,-0.00269691,-0.0152755
290,1888.66,869.034,0,0.0187001,-0.00021467,-0.0121307
291,1889.12,868.995,0,0.0184451,-0.000379617,-0.0112406
292,1889.53,869.005,0,0.0185411,-0.00292479,-0.010624
293,1889.99,868.95,0,0.0176005,-0.00404227,-0.0150842
294,1890.36,868.92,0,0.01644,-0.00426955,-0.0170363
295,1890.86,868.922,0,0.0168952,-0.00572477,-0.0175742
296,1891.21,868.93,0,0.0177293,-0.00690196,-0.0187896
297,1891.66,868.997,0,0.0175952,-0.00692042,-0.0172798
298,1892.07,868.982,0,0.018638,-0.00861271,-0.0193496
299,1892.5,868.983,0,0.0183414,-0.0107842,-0.0196341
300,1893,868.961,0,0.0166857,-0.00735762,-0.0132661
301,1893.35,868.95,0,0.0179338,-0.0102964,-0.0160016
302,1893.74,868.96,0,0.0183095,-0.0130122,-0.0173274
303,1894.14,868.966,0,0.0193801,-0.0128693,-0.0160015
304,1894.52,869.006,0,0.019718,-0.0104517,-0.0141972
305,1894.93,869.055,0,0.0200682,-0.0102969,-0.0117714
306,1895.27,869.118,0,0.0211601,-0.00738823,-0.0118455
307,1895.81,868.99,0,0.0203165,-0.0110837,-0.0299392
308,1896.21,868.902,0,0.0192548,-0.00995973,-0.0363016
309,1896.7,868.863,0,0.0187514,-0.00769572,-0.0452397
310,1897.08,868.983,0,0.0197408,-0.00706306,-0.0485024
311,1897.44,869.048,0,0.0204161,-0.00698354,-0.0505013
312,1898.33,868.874,0,0.0188585,-0.00630999,-0.0513436
313,1898.71,868.88,0,0.0194358,-0.0082998,-0.0546423
314,1899.15,868.85,0,0.019603,-0.00556921,-0.0566987
315,1899.57,869.079,0,0.0194152,-0.00824723,-0.0247896
316,1900,869.02,0,0.0191079,-0.00906809,-0.0321009
317,1900.44,869.04,0,0.0179148,-0.0092729,-0.0316108
318,1900.89,869.013,0,0.0188708,-0.0105167,-0.0330927
319,1901.3,869.011,0,0.0185647,-0.00866009,-0.0300894
320,1901.7,869.074,0,0.0190425,-0.0112127,-0.0280305
321,1902.13,869.051,0,0.0196214,-0.00836209,-0.0255203
322,1902.58,869.204,0,0.0222636,-0.0112143,-0.0215586
323,1903.04,869.273,0,0.0211779,-0.0110505,-0.0146473
324,1903.5,869.253,0,0.0209893,-0.0116043,-0.01441
325,1903.93,869.227,0,0.0208736,-0.00983229,-0.0165607
326,1904.42,869.155,0,0.0186029,-0.00702168,-0.0203666
327,1904.84,869.198,0,0.018183,-0.00794036,-0.0119046
328,1905.31,869.252,0,0.0196344,-0.00964038,-0.0111641
329,1905.67,869.207,0,0.0178309,-0.00279018,-0.000475239
330,1906.11,869.202,0,0.0180193,-0.00447339,0.0020616
331,1906.57,869.201,0,0.0181645,-0.00501617,-0.00304036
332,1906.99,869.307,0,0.021247,-0.00640759,-0.0110967
333,1907.45,869.242,0,0.0207026,-0.00619618,-0.0151152
334,1907.96,869.319,0,0.0207458,-0.00669694,-0.00660224
335,1908.37,869.346,0,0.0219174,-0.00244153,-0.00151682
336,1908.77,869.374,0,0.0232942,-0.00209806,-0.00395091
337,1909.19,869.307,0,0.0202391,-0.00135796,-0.00232784
338,1909.66,869.397,0,0.0225641,-0.00248596,-0.00105296
339,1910.12,869.357,0,0.0213726,-0.00209278,-0.000365146
340,1910.52,869.402,0,0.0237233,-0.0023923,-0.00118371
341,1910.95,869.349,0,0.0231095,-0.00372069,-0.00760756
342,1911.46,869.357,0,0.0222882,-0.00929328,0.0058094
343,1911.91,869.385,0,0.021645,-0.00992416,0.00678684
344,1912.34,869.332,0,0.0203666,-0.00847112,0.00484871
345,1912.75,869.409,0,0.0224661,-0.0106168,0.00773308
346,1913.14,869.46,0,0.022693,-0.00938123,0.00610609
347,1913.61,869.452,0,0.0229238,-0.0103157,0.00534431
348,1914.04,869.491,0,0.0222084,-0.0117657,0.00486937
349,1914.5,869.513,0,0.0241612,-0.0113842,0.00534024
350,1914.96,869.528,0,0.024708,-0.00991031,0.00168415
351,1915.4,869.547,0,0.0232427,-0.0124161,0.00370326
352,1915.85,869.518,0,0.0224953,-0.0140105,0.00539066
353,1916.27,869.535,0,0.0243494,-0.0117922,0.00199219
354,1916.69,869.668,0,0.0243972,-0.00606757,0.00337763
355,1917.13,869.66,0,0.0247708,-0.00588326,0.00203744
356,1917.57,869.686,0,0.0266916,-0.00672166,-0.0015293
357,1917.97,869.672,0,0.0258368,-0.00693192,-0.00210508
358,1918.44,869.675,0,0.0258361,-0.00847902,-0.000466473
359,1918.81,869.676,0,0.0259119,-0.00896804,-0.00151723
360,1919.3,869.668,0,0.0260559,-0.00959802,-0.000837703
361,1919.75,869.611,0,0.0269883,-0.00899623,-0.00108842
362,1920.19,869.661,0,0.0253993,-0.00785447,-0.00199828
363,1920.63,869.713,0,0.0264834,-0.00731631,-0.00174161
364,1921.07,869.803,0,0.0263457,-0.00786222,-0.000636437
365,1921.54,869.8,0,0.030142,-0.00151125,-0.000705309
366,1921.95,869.748,0,0.0299453,0.000752192,0.00120055
367,1922.41,869.84,0,0.029966,-0.00297376,0.0141719
368,1923,869.752,0,0.0312178,-0.00229131,0.0135481
369,1923.35,869.773,0,0.0307021,-0.00447468,0.0153931
370,1923.7,869.899,0,0.0316338,-0.0114701,0.00948892
