id,x,y,z,yaw,pitch,roll
1,-285.137,226.318,-12.5949,2.44813,0.0135769,0.0454404
2,-284.903,226.114,-12.5957,2.44803,0.0153275,0.0471954
3,-285.383,226.499,-12.5976,2.44783,0.0132403,0.0450494
4,-285.598,226.707,-12.6062,2.44817,0.012876,0.0435112
5,-285.816,226.915,-12.6147,2.44979,0.0116067,0.0389921
6,-286.026,227.119,-12.6197,2.45032,0.0113054,0.0385936
7,-286.228,227.303,-12.6167,2.44974,0.0110261,0.0375028
8,-286.447,227.5,-12.6096,2.45044,0.0102335,0.0383289
9,-286.65,227.68,-12.6048,2.45108,0.00868899,0.0382167
10,-286.846,227.873,-12.6113,2.45174,0.00782325,0.0358701
11,-287.044,228.043,-12.586,2.45175,0.00331463,0.0352648
12,-287.243,228.195,-12.5981,2.45132,-0.00103655,0.0378917
13,-287.433,228.349,-12.6159,2.45084,-0.00328758,0.0400216
14,-287.616,228.505,-12.6295,2.45054,-0.00255843,0.0406714
15,-287.806,228.67,-12.6405,2.4512,-0.00105912,0.0416319
16,-287.99,228.828,-12.6286,2.45128,-6.23459e-05,0.0419783
17,-288.163,228.978,-12.6418,2.45168,-0.00012253,0.0418016
18,-288.333,229.118,-12.6622,2.45227,0.00202714,0.0417414
19,-288.521,229.281,-12.6729,2.45284,0.00538407,0.0416539
20,-288.678,229.424,-12.6596,2.4531,0.00677467,0.0387169
21,-288.849,229.558,-12.6524,2.4536,0.00652934,0.036991
22,-288.999,229.679,-12.6625,2.45415,0.0059513,0.0367724
23,-289.153,229.822,-12.6745,2.45414,0.00655288,0.03845
24,-289.311,229.959,-12.6969,2.45387,0.00967669,0.0396052
25,-289.465,230.076,-12.7042,2.45465,0.0122237,0.0421389
26,-289.623,230.219,-12.6938,2.45618,0.0142572,0.0442785
27,-289.768,230.343,-12.6958,2.45661,0.0145885,0.0456791
28,-289.916,230.459,-12.6858,2.45568,0.0137866,0.046493
29,-290.081,230.583,-12.6828,2.45721,0.0118075,0.0454267
30,-290.223,230.696,-12.7009,2.45892,0.00921676,0.0454273
31,-290.385,230.794,-12.699,2.45967,0.00809523,0.0444319
32,-290.551,230.899,-12.6892,2.46092,0.00479699,0.0434393
33,-290.657,231.019,-12.6815,2.45962,0.00148477,0.0428318
34,-290.791,231.145,-12.6499,2.45868,-0.000667961,0.0416789
35,-290.884,231.277,-12.5572,2.45842,-0.00627169,0.0368723
36,-291.007,231.4,-12.5511,2.45707,-0.0143393,0.0353237
37,-291.151,231.513,-12.6014,2.45792,-0.0148289,0.035774
38,-291.291,231.601,-12.6619,2.45878,-0.00946963,0.0369097
39,-291.427,231.66,-12.7172,2.45985,-0.000476644,0.0390628
40,-291.534,231.784,-12.6853,2.46046,0.00523297,0.0395206
41,-291.636,231.898,-12.6662,2.45929,0.00318163,0.0418488
42,-291.81,232.011,-12.7013,2.45989,-0.000915283,0.0465152
43,-291.968,232.082,-12.7193,2.45979,-0.00125394,0.0524825
44,-292.073,232.197,-12.7139,2.45831,0.000639639,0.0549583
45,-292.22,232.271,-12.6899,2.46069,0.00318281,0.0526035
46,-292.344,232.355,-12.6871,2.46261,0.00607751,0.0475443
47,-292.515,232.451,-12.6821,2.46598,0.00653306,0.0432813
48,-292.714,232.561,-12.6649,2.4696,0.00404203,0.0424219
49,-292.874,232.635,-12.703,2.47059,0.00180284,0.0461725
50,-293.003,232.695,-12.7143,2.47094,0.0020762,0.0469707
51,-293.133,232.754,-12.6956,2.47368,0.00375409,0.0473604
52,-293.325,232.833,-12.6773,2.47635,0.00356579,0.0468979
53,-293.485,232.933,-12.6945,2.47623,0.00355312,0.0473643
54,-293.674,232.963,-12.7153,2.48126,0.0080171,0.0477752
55,-293.801,233.068,-12.6886,2.48229,0.0113048,0.0475977
56,-293.982,233.177,-12.6547,2.48595,0.0072508,0.0440933
57,-294.137,233.325,-12.6612,2.48184,-0.00357284,0.0457241
58,-294.268,233.428,-12.7017,2.48283,-0.00753164,0.0446679
59,-294.456,233.522,-12.7297,2.48592,-0.00691038,0.0476476
60,-294.551,233.567,-12.7285,2.48554,-0.00755291,0.0518842
61,-294.657,233.655,-12.6974,2.48568,-0.00965608,0.0526544
62,-294.813,233.746,-12.7162,2.48774,-0.0112671,0.0537439
63,-294.929,233.829,-12.7278,2.48733,-0.0101619,0.0547867
64,-295.01,233.994,-12.7154,2.48422,-0.00930951,0.0546971
65,-295.099,234.116,-12.7313,2.48134,-0.00838216,0.0550796
66,-295.241,234.199,-12.7129,2.4823,-0.00779915,0.0520521
67,-295.323,234.389,-12.7222,2.47932,-0.00784379,0.0497566
68,-295.418,234.535,-12.7047,2.47779,-0.00835204,0.0483379
69,-295.556,234.647,-12.7136,2.47707,-0.00827946,0.048713
70,-295.704,234.747,-12.7174,2.47778,-0.00785394,0.0498314
71,-295.871,234.85,-12.7233,2.47913,-0.00755815,0.0495322
72,-296.02,234.951,-12.7034,2.47902,-0.0079595,0.0503083
73,-296.069,235.16,-12.7082,2.47293,-0.00789803,0.0499384
74,-296.029,235.381,-12.7277,2.46387,-0.00646912,0.0482431
75,-296.159,235.47,-12.7429,2.46486,-0.00680428,0.0489403
76,-296.3,235.591,-12.7468,2.46423,-0.00665099,0.0494472
77,-296.465,235.668,-12.738,2.46504,-0.0058767,0.0481894
78,-296.623,235.778,-12.731,2.46388,-0.00593386,0.0471909
79,-296.727,235.892,-12.7464,2.46409,-0.00608771,0.0453491
80,-296.932,235.981,-12.741,2.46573,-0.0051016,0.0448348
81,-297.106,236.031,-12.7267,2.46693,-0.00379717,0.0452063
82,-297.374,236.03,-12.6967,2.47258,-0.0041898,0.0465567
83,-297.586,236.013,-12.6936,2.47616,-0.00393414,0.0474579
84,-297.853,236.069,-12.6864,2.48064,-0.00562474,0.0488479
85,-298.028,236.092,-12.6894,2.48229,-0.00575283,0.0479203
86,-298.366,236.008,-12.6695,2.49176,-0.00500424,0.0490528
87,-298.728,235.495,-12.6751,2.51529,0.00106848,0.0450026
88,-298.908,235.537,-12.6956,2.5177,0.000615562,0.0452057
89,-298.987,235.754,-12.6908,2.51729,-0.00274016,0.0487395
90,-299.092,235.904,-12.6802,2.51452,-0.00184805,0.0444237
91,-299.178,236.019,-12.6788,2.51513,0.000110824,0.0426135
92,-299.39,236.1,-12.6669,2.51584,-0.00112882,0.0434099
93,-299.491,236.25,-12.6843,2.5187,-0.000775575,0.0410445
94,-299.655,236.384,-12.6991,2.51963,0.000584961,0.0406538
95,-299.832,236.508,-12.688,2.52006,-0.000370732,0.0379997
96,-300.013,236.618,-12.6717,2.52253,-0.000607566,0.0353416
97,-300.134,236.721,-12.669,2.5247,-0.00165756,0.0349169
98,-300.424,236.77,-12.6549,2.52969,-0.00213354,0.0319165
99,-300.747,236.661,-12.6392,2.53324,0.00180437,0.0292256
100,-300.889,236.669,-12.6742,2.53449,0.00552909,0.0275145
101,-301.045,236.738,-12.7234,2.53735,0.00700207,0.0285578
102,-301.212,236.817,-12.7145,2.53827,0.00914535,0.0279149
103,-301.419,236.847,-12.7113,2.5382,0.010696,0.0310256
104,-301.518,236.894,-12.7447,2.53916,0.0127226,0.0285428
105,-301.595,236.975,-12.7523,2.54089,0.0123704,0.0275091
106,-301.74,237.076,-12.7601,2.54273,0.0151347,0.0249463
107,-301.772,236.526,-12.7408,2.56714,0.0207345,0.0229452
108,-301.824,236.566,-12.7619,2.56771,0.0215582,0.0227671
109,-302.052,236.592,-12.7712,2.57078,0.0218575,0.0211472
110,-302.215,236.66,-12.7784,2.57404,0.0222877,0.0205115
111,-302.429,236.763,-12.794,2.57631,0.0207917,0.0190005
112,-302.547,236.821,-12.8103,2.57858,0.0220906,0.0172611
113,-302.714,236.986,-12.7951,2.57643,0.0256741,0.0159442
114,-302.934,237.209,-12.776,2.57455,0.0256391,0.0109629
115,-303,237.407,-12.7616,2.57558,0.0205162,0.0110181
116,-303.152,237.558,-12.7643,2.57598,0.0190211,0.00907443
117,-303.353,237.662,-12.782,2.57633,0.0198924,0.00559713
118,-303.484,237.809,-12.7669,2.57887,0.0185566,0.00730254
119,-303.666,237.872,-12.7998,2.58195,0.0211539,0.00553875
120,-303.885,237.98,-12.8156,2.58355,0.0196154,0.00684483
121,-303.997,238.118,-12.7919,2.58514,0.021163,0.00663274
122,-304.213,238.223,-12.8208,2.58753,0.0212399,0.00688081
123,-304.442,238.291,-12.7934,2.59029,0.0206881,0.00643024
124,-304.644,238.391,-12.8199,2.59233,0.0222112,0.00582692
125,-304.79,238.558,-12.8268,2.59496,0.0205966,0.00306802
126,-304.989,238.712,-12.8253,2.59774,0.020635,0.00245861
127,-305.176,238.842,-12.8106,2.60056,0.0203491,0.00158233
128,-305.355,238.919,-12.8204,2.60514,0.0214219,-0.000108658
129,-305.551,239.057,-12.8121,2.60847,0.0216803,-0.00152311
130,-305.842,239.099,-12.7945,2.61433,0.0230674,-0.0025299
131,-305.983,239.141,-12.8163,2.61714,0.0220392,-0.00216934
132,-306.11,239.253,-12.8712,2.62007,0.0211596,0.000314683
133,-306.37,239.441,-12.8527,2.62548,0.0177127,0.00196228
134,-306.554,239.585,-12.8417,2.62916,0.0159337,0.000194399
135,-306.708,239.828,-12.7969,2.63175,0.0147076,-0.00480471
136,-306.014,242.588,-12.7422,2.57504,-0.0117552,0.00667815
137,-306.095,242.766,-12.758,2.58215,-0.0116477,0.00570135
138,-306.25,242.888,-12.7834,2.59323,-0.011624,0.00672099
139,-306.452,242.982,-12.7807,2.60522,-0.012145,0.00671419
140,-306.613,243.084,-12.7888,2.61621,-0.0118983,0.00667834
141,-306.835,243.15,-12.7858,2.62892,-0.0128509,0.00677619
142,-307.009,243.231,-12.7849,2.64045,-0.0129038,0.00634818
143,-307.245,243.262,-12.7882,2.65454,-0.0127036,0.00402071
144,-307.396,243.417,-12.7982,2.66926,-0.0136658,0.00235539
145,-307.594,243.479,-12.8085,2.68327,-0.0134832,0.00404635
146,-307.789,243.545,-12.8084,2.69793,-0.0132544,0.00486083
147,-307.972,243.64,-12.8114,2.71277,-0.0135268,0.00666733
148,-308.152,243.715,-12.8101,2.72992,-0.0134207,0.00780253
149,-308.378,243.768,-12.8054,2.74761,-0.0129441,0.00825566
150,-308.6,243.787,-12.8078,2.76648,-0.0117809,0.00625041
151,-308.846,243.816,-12.812,2.78737,-0.0115452,0.00505875
152,-309.057,243.871,-12.8189,2.80828,-0.0115523,0.00370592
153,-309.27,243.911,-12.8284,2.82949,-0.0113885,0.00268387
154,-309.493,243.926,-12.8362,2.85177,-0.0112065,0.00299005
155,-309.739,243.931,-12.8412,2.87591,-0.0104633,0.00372404
156,-309.971,243.89,-12.8338,2.89935,-0.00903795,0.00280407
157,-310.194,243.899,-12.8287,2.92207,-0.00773495,0.00116971
158,-310.376,243.932,-12.8379,2.94638,-0.0065674,-0.000703613
159,-310.607,243.911,-12.8488,2.97076,-0.00648083,-0.000928298
160,-310.826,243.889,-12.8443,2.99578,-0.0062433,-0.000864379
161,-311.052,243.845,-12.8516,3.02081,-0.00645126,0.00050298
162,-311.284,243.793,-12.8527,3.04582,-0.00674181,0.00194575
163,-311.528,243.74,-12.8533,3.07142,-0.00610505,0.00298219
164,-311.745,243.67,-12.8453,3.09749,-0.00594665,0.00408476
165,-311.962,243.634,-12.8366,3.1237,-0.00635815,0.00450372
166,-312.201,243.566,-12.847,-3.13357,-0.00663196,0.00512554
167,-312.446,243.5,-12.8491,-3.10754,-0.00514393,0.00544422
168,-312.649,243.422,-12.8561,-3.08037,-0.00390189,0.00542066
169,-312.901,243.309,-12.8547,-3.05312,-0.00499128,0.00564606
170,-313.136,243.209,-12.8596,-3.0249,-0.00519089,0.00632768
171,-313.372,243.09,-12.8703,-2.99662,-0.00545103,0.00758507
172,-313.62,242.954,-12.8822,-2.96846,-0.00418293,0.00855894
173,-313.831,242.838,-12.8805,-2.93989,-0.00159184,0.0106454
174,-314.061,242.72,-12.8934,-2.91144,0.000155177,0.0107607
175,-314.294,242.583,-12.9061,-2.88199,0.000487437,0.0114045
176,-314.531,242.415,-12.9082,-2.85299,-0.00216519,0.013181
177,-314.756,242.257,-12.9036,-2.82513,-0.00349937,0.0133715
178,-314.964,242.093,-12.9114,-2.79688,-0.00462486,0.0104228
179,-315.212,241.947,-12.9254,-2.76794,-0.00677256,0.0103252
180,-315.444,241.759,-12.9278,-2.74045,-0.00640372,0.0142294
181,-315.695,241.593,-12.9248,-2.71292,-0.00581642,0.0164939
182,-315.955,241.407,-12.9214,-2.68495,-0.00514319,0.0170899
183,-316.187,241.215,-12.9139,-2.6585,-0.00312743,0.0163763
184,-316.44,240.987,-12.9077,-2.63114,-0.0014123,0.0141024
185,-316.679,240.759,-12.9169,-2.60569,-0.000325305,0.0128805
186,-316.913,240.522,-12.8981,-2.58253,0.000760518,0.00966522
187,-317.143,240.337,-12.914,-2.56096,0.00289435,0.00428721
188,-317.374,240.113,-12.9358,-2.54116,0.00501731,0.00131057
189,-317.605,239.9,-12.959,-2.52205,0.00487991,0.00226712
190,-317.841,239.66,-12.957,-2.50393,0.00316356,0.00640426
191,-318.083,239.405,-12.9682,-2.48808,0.000804876,0.00922183
192,-318.295,239.168,-12.958,-2.47082,-0.00176272,0.0109141
193,-318.516,238.925,-12.9673,-2.45323,-0.00209109,0.0126411
194,-318.743,238.681,-12.966,-2.43685,-0.00101186,0.0126277
195,-318.96,238.421,-12.9721,-2.41946,-0.00128233,0.0115356
196,-319.198,238.17,-12.9623,-2.40278,-0.0028175,0.00983486
197,-319.428,237.912,-12.9692,-2.38843,-0.00424491,0.00943227
198,-319.639,237.652,-12.9925,-2.37326,-0.00562036,0.00932156
199,-319.883,237.388,-13.0149,-2.35967,-0.00943826,0.00993132
200,-320.147,237.076,-13.0027,-2.34649,-0.0150704,0.0107115
201,-320.426,236.771,-12.9981,-2.33544,-0.0207852,0.0102186
